1679714534.650351,[ 87 112 525 592 140 158 192 115]
1679714534.666737,[ 87 155 541 656 173 191 205 118]
1679714534.687721,[ 89 167 546 717 186 185 193 121]
1679714534.717833,[ 93 161 616 662 180 170 197 112]
1679714534.734292,[100 160 609 651 173 176 205 122]
1679714534.750977,[ 90 158 549 684 176 159 178 107]
1679714534.786714,[ 89 107 553 621 135 127 172 113]
1679714534.78818,[ 99 102 548 552 112 122 207 130]
1679714534.809325,[ 98 102 549 488 106 112 188 132]
1679714534.832223,[ 85 126 564 548 142  98 169 121]
1679714534.8468,[ 87 139 565 603 141 105 172 125]
1679714534.867816,[ 96 145 544 667 165 116 156 116]
1679714534.890615,[ 89 135 586 691 174 124 109 104]
1679714534.906773,[ 88 146 540 799 185 134 117 107]
1679714534.93578,[ 88 123 484 779 167 143 140 109]
1679714534.950491,[ 85 107 620 724 166 149 138 101]
1679714534.974344,[ 76 101 653 655 142 146 155 110]
1679714534.996832,[ 83 115 595 684 142 139 155 123]
1679714535.017895,[ 82 100 630 587 125 139 152 126]
1679714535.026749,[ 80 107 636 566 125 155 150 126]
1679714535.047914,[101 129 510 618 157 154 156 138]
1679714535.07031,[125 125 545 672 155 166 182 161]
1679714535.086848,[113 120 587 694 172 167 179 143]
1679714535.107772,[117 136 533 674 212 183 177 143]
1679714535.130366,[125 141 581 704 209 182 173 148]
1679714535.146776,[113 134 677 718 207 193 195 144]
1679714535.168012,[ 88 149 606 720 218 178 157 113]
1679714535.190566,[ 90 145 595 655 204 181 158 113]
1679714535.206759,[ 84 135 592 689 175 191 182 111]
1679714535.227981,[ 74 126 576 687 173 177 200 103]
1679714535.252067,[ 74 116 493 636 149 164 181 101]
1679714535.267579,[ 71 104 573 656 130 178 196  95]
1679714535.305456,[ 70 103 528 791 129 197 207 103]
1679714535.318285,[ 84 100 528 767 113 174 208 124]
1679714535.342094,[ 81 126 531 806 114 172 183 121]
1679714535.357218,[ 78 140 536 772 131 177 201 127]
1679714535.370624,[ 81 149 472 836 134 160 198 132]
1679714535.401725,[ 88 153 523 717 142 134 199 140]
1679714535.409861,[ 79 156 553 711 142 117 176 119]
1679714535.431944,[ 82 141 526 671 143 120 170 118]
1679714535.460427,[ 82 143 499 651 122 126 202 121]
1679714535.469312,[ 87 127 540 495 121 134 226 139]
1679714535.490369,[ 87 122 504 604 113 144 225 135]
1679714535.506983,[ 87 130 506 647 138 158 258 146]
1679714535.552837,[ 88 126 584 663 146 174 258 151]
1679714535.557753,[ 86 109 638 684 153 160 216 146]
1679714535.574481,[ 80 113 634 713 162 155 179 126]
1679714535.610795,[ 76 107 612 662 154 158 177 117]
1679714535.627552,[ 71  84 592 603 133 171 139 102]
1679714535.64069,[ 73  82 601 637 125 168 149 111]
1679714535.665027,[ 75  84 558 702 142 172 147 107]
1679714535.678163,[ 71  95 505 702 147 172 163 123]
1679714535.693621,[ 85  97 572 737 143 159 185 164]
1679714535.710592,[ 86 103 576 796 146 137 179 164]
1679714535.730823,[ 89 135 587 813 182 124 182 166]
1679714535.746981,[ 93 135 646 901 183 117 185 168]
1679714535.775725,[ 96 133 726 898 184 120 191 173]
1679714535.798326,[ 86 130 717 842 198 123 162 144]
1679714535.806888,[ 91 136 783 819 196 126 158 142]
1679714535.82957,[ 90 105 699 716 163 159 156 134]
1679714535.851755,[ 94 111 740 539 147 166 155 150]
1679714535.874323,[ 90 102 673 537 140 169 128 129]
1679714535.896872,[ 98 104 676 570 124 168 131 129]
1679714535.917794,[ 98 101 635 629 131 161 130 139]
1679714535.941731,[ 98 158 743 661 129 120 156 150]
1679714535.963565,[102 163 680 817 156 118 161 141]
1679714535.977927,[108 163 684 876 169 113 160 144]
1679714536.000333,[102 178 696 864 166 110 199 158]
1679714536.016945,[ 98 183 695 842 171 112 200 150]
1679714536.030331,[ 93 142 650 850 174 110 175 135]
1679714536.053064,[ 81 131 595 707 147 113 188 127]
1679714536.069313,[ 79 131 640 661 131 134 220 133]
1679714536.09069,[ 74 118 671 751 132 132 193 107]
1679714536.12037,[ 73 102 663 748 123 136 197 106]
1679714536.136749,[ 82 120 629 734 120 145 222 136]
1679714536.151861,[ 88 140 744 723 133 144 219 132]
1679714536.173121,[ 84 151 695 686 126 118 199 128]
1679714536.189462,[ 82 172 628 553 145 115 185 124]
1679714536.219876,[ 93 171 657 600 152 158 244 149]
1679714536.232944,[ 93 159 637 592 161 157 242 141]
1679714536.250025,[ 84 139 503 624 176 154 232 137]
1679714536.270519,[ 94 147 510 607 187 174 251 164]
1679714536.292869,[118 120 487 636 182 224 333 226]
1679714536.30947,[127 152 434 648 191 203 328 241]
1679714536.337929,[135 165 458 696 216 197 317 235]
1679714536.352778,[142 171 446 687 207 200 319 238]
1679714536.377006,[138 153 518 732 204 190 308 219]
1679714536.390325,[122 160 582 805 199 143 227 158]
1679714536.414355,[103 157 635 806 192 143 201 116]
1679714536.436991,[101 140 656 790 153 163 199 119]
1679714536.451752,[ 97 132 662 787 145 192 198 120]
1679714536.474523,[101 132 676 750 143 187 186 132]
1679714536.496909,[103 132 746 730 157 209 189 131]
1679714536.517792,[124 106 671 653 151 221 239 164]
1679714536.534337,[124 110 677 600 148 221 256 188]
1679714536.549988,[143 119 723 584 165 194 261 210]
1679714536.577922,[149 157 724 670 186 194 265 207]
1679714536.593376,[148 153 653 580 175 161 283 211]
1679714536.609336,[146 147 668 601 180 161 244 193]
1679714536.637955,[142 142 660 624 210 167 241 172]
1679714536.660706,[127 133 618 612 201 169 246 156]
1679714536.669369,[115  90 639 564 185 168 238 152]
1679714536.690596,[116  76 646 655 192 179 223 154]
1679714536.714341,[117  81 641 693 189 159 195 170]
1679714536.751931,[109  90 601 720 183 131 178 161]
1679714536.753247,[104 104 608 809 190 117 158 148]
1679714536.798456,[120 105 527 792 186 166 250 189]
1679714536.8003,[117 101 429 744 174 156 248 189]
1679714536.81035,[ 96 106 467 677 188 155 243 161]
1679714536.834432,[102 106 516 773 173 168 242 168]
1679714536.849446,[116 100 591 743 165 198 306 212]
1679714536.870251,[111 100 572 719 166 167 247 183]
1679714536.900412,[116 107 696 722 173 174 249 181]
1679714536.909275,[115 108 675 788 163 165 250 183]
1679714536.937973,[109  98 677 682 148 156 250 177]
1679714536.95284,[ 86  95 605 611 141 120 180 118]
1679714536.977121,[ 70 102 631 668 138 128 178 115]
1679714536.990352,[ 63 109 638 660 168 142 162 114]
1679714537.01435,[ 68 103 616 609 162 146 180 122]
1679714537.042982,[ 71 108 582 640 172 156 210 130]
1679714537.067597,[ 82 116 636 666 186 171 199 131]
1679714537.088711,[ 92 105 634 645 200 175 207 153]
1679714537.095313,[ 91 100 500 689 177 154 212 157]
1679714537.11181,[ 98 112 610 671 170 152 214 158]
1679714537.140407,[107 114 670 618 174 155 183 157]
1679714537.155256,[111 110 651 679 158 141 191 168]
1679714537.171762,[117 121 638 642 134 167 174 163]
1679714537.192756,[118 119 728 585 128 181 182 160]
1679714537.215244,[114 112 672 606 137 189 187 160]
1679714537.232043,[115 107 615 613 113 181 209 175]
1679714537.260369,[104  97 604 503 111 180 202 164]
1679714537.282972,[ 97 103 671 551 126 163 264 168]
1679714537.330769,[ 95 104 603 626 138 174 259 165]
1679714537.337463,[ 91 106 628 633 141 173 244 156]
1679714537.342731,[ 80 116 643 632 146 166 227 131]
1679714537.359373,[ 80 117 672 646 141 183 225 126]
1679714537.374408,[ 78 110 646 642 128 174 157  95]
1679714537.396936,[ 73 105 679 675 106 158 162  94]
1679714537.411794,[ 74 114 670 693  86 155 155 104]
1679714537.433025,[ 68 113 695 679  91 163 148 101]
1679714537.45541,[ 87 114 652 764 114 154 180 129]
1679714537.494425,[ 87 118 614 716 111 150 174 127]
1679714537.495682,[ 89 120 548 632 132 143 180 128]
1679714537.52032,[ 85 109 527 574 142 143 182 121]
1679714537.531839,[ 84 100 468 598 137 138 182 124]
1679714537.570234,[ 84 110 502 650 176 122 194 121]
1679714537.582845,[ 75  98 505 697 207 110 189 114]
1679714537.607493,[ 78 143 568 736 213 108 197 115]
1679714537.628503,[ 82 150 629 798 218 148 224 140]
1679714537.635192,[ 99 154 655 797 230 161 232 159]
1679714537.652235,[101 151 648 681 194 176 219 167]
1679714537.672823,[108 156 691 671 179 201 261 194]
1679714537.695414,[123 118 636 627 189 211 253 204]
1679714537.7221,[124 105 595 651 191 183 234 193]
1679714537.734289,[116  99 644 695 180 181 236 180]
1679714537.762874,[103  97 646 729 186 178 239 173]
1679714537.771773,[ 95  93 651 781 204 169 208 148]
1679714537.792804,[ 78  87 743 787 191 162 191 132]
1679714537.816808,[ 98 102 746 744 181 164 224 150]
1679714537.831736,[115 108 664 701 202 150 268 175]
1679714537.852853,[119 109 721 708 195 141 261 166]
1679714537.891045,[122 104 679 656 166 140 259 166]
1679714537.906054,[138 110 601 623 151 161 286 192]
1679714537.912856,[127  99 636 611 157 163 274 176]
1679714537.936521,[110  87 640 618 130 185 244 154]
1679714537.957812,[120  97 582 595 128 216 244 158]
1679714537.973053,[122  98 575 698 132 210 263 165]
1679714537.995661,[ 99 103 683 700 155 202 255 134]
1679714538.017867,[106 109 604 748 157 210 242 145]
1679714538.048662,[110 110 690 764 173 197 239 148]
1679714538.070996,[105 107 682 733 178 189 291 163]
1679714538.077778,[101 106 671 602 174 187 287 162]
1679714538.100455,[105 105 538 675 174 188 288 162]
1679714538.115272,[111 106 548 602 178 228 302 159]
1679714538.138631,[111 113 480 582 161 228 304 153]
1679714538.160872,[111 114 450 744 185 224 282 150]
1679714538.191113,[120 118 564 761 182 238 265 144]
1679714538.206166,[118 128 551 701 166 242 245 137]
1679714538.212994,[118 135 575 714 168 199 244 156]
1679714538.235541,[114 137 694 820 181 192 247 160]
1679714538.257902,[123 140 740 802 168 188 218 153]
1679714538.280358,[115 148 674 808 185 163 213 149]
1679714538.30434,[113 140 771 843 187 145 222 151]
1679714538.329138,[112 126 769 839 181 141 216 159]
1679714538.348571,[112 119 787 809 175 147 194 155]
1679714538.37133,[ 97 124 812 766 182 136 187 153]
1679714538.386042,[107 150 940 772 169 145 251 180]
1679714538.400361,[113 142 885 752 164 141 242 192]
1679714538.41596,[106 148 868 754 152 136 250 173]
1679714538.437912,[104 153 809 665 150 133 257 171]
1679714538.453056,[101 149 786 643 124 118 253 159]
1679714538.475411,[ 85 109 604 652 133 104 199 131]
1679714538.505981,[ 90 145 605 626 138 111 213 141]
1679714538.512818,[ 84 155 673 610 134 112 184 125]
1679714538.535394,[ 90 149 627 628 122 132 193 133]
1679714538.574185,[116 152 620 692 149 187 256 184]
1679714538.588533,[126 154 697 702 145 208 256 194]
1679714538.603262,[129 128 699 770 144 226 281 193]
1679714538.619246,[128 119 630 821 154 237 358 215]
1679714538.632733,[137 124 628 941 171 241 393 229]
1679714538.662831,[110 115 670 853 146 209 358 190]
1679714538.679537,[104 115 653 929 151 186 352 180]
1679714538.701727,[ 92 118 711 907 151 209 357 174]
1679714538.739297,[101 122 758 887 176 202 277 152]
1679714538.740761,[ 98 134 727 837 179 200 216 127]
1679714538.762763,[115 135 718 847 182 209 204 144]
1679714538.775489,[117 134 715 717 178 215 221 155]
1679714538.797859,[126 131 662 746 195 190 186 156]
1679714538.814295,[125 117 674 708 168 184 195 158]
1679714538.835538,[118  96 732 683 169 188 181 154]
1679714538.857818,[112  84 821 717 174 178 183 155]
1679714538.889976,[111  83 827 805 175 202 184 154]
1679714538.902897,[100  97 826 779 180 179 173 149]
1679714538.919232,[ 92 100 801 829 195 183 180 153]
1679714538.941952,[ 99  99 839 761 181 179 193 160]
1679714538.955328,[109 117 704 728 176 177 218 160]
1679714538.9778,[104 130 658 743 174 152 199 148]
1679714539.001772,[107 141 778 778 164 169 236 151]
1679714539.01679,[122 146 798 775 149 166 224 149]
1679714539.045281,[112 162 735 795 162 144 219 140]
1679714539.060378,[104 154 743 784 157 141 199 131]
1679714539.082937,[105 143 777 714 155 170 196 133]
1679714539.105304,[115 125 664 725 151 163 144 122]
1679714539.12038,[104 117 709 771 151 154 138 114]
1679714539.136154,[110 100 699 739 136 162 138 123]
1679714539.158075,[107  89 696 723 130 163 178 119]
1679714539.190074,[105  88 639 737 163 161 232 135]
1679714539.19541,[ 93  88 659 650 165 161 232 132]
1679714539.225318,[106  92 550 534 164 215 259 146]
1679714539.249098,[108  90 525 570 169 216 266 138]
1679714539.271044,[101  98 477 592 173 213 248 140]
1679714539.278037,[103 100 535 660 164 186 203 121]
1679714539.316819,[106  91 553 667 152 185 198 138]
1679714539.318257,[ 88  91 611 690 161 130 173 121]
1679714539.337755,[ 83 100 704 765 202 128 176 133]
1679714539.361774,[ 90 103 703 762 205 130 161 131]
1679714539.375463,[103 115 710 783 193 138 180 157]
1679714539.397885,[ 99 120 677 766 193 150 178 138]
1679714539.420419,[101 118 639 835 188 149 176 139]
1679714539.435597,[101 119 614 786 150 141 166 141]
1679714539.458092,[102 115 636 786 148 149 175 139]
1679714539.504427,[ 86 102 629 655 134 134 158 109]
1679714539.526844,[ 88  96 679 753 147 132 206 134]
1679714539.528416,[ 89  92 661 628 134 138 217 149]
1679714539.548869,[ 90  80 611 612 137 169 216 143]
1679714539.555414,[ 84  73 596 606 142 170 213 152]
1679714539.578058,[ 83  78 569 607 154 176 224 153]
1679714539.600614,[ 88  77 458 536 168 196 198 149]
1679714539.616759,[ 84  85 481 653 177 204 188 145]
1679714539.638029,[ 83  89 438 628 197 180 197 150]
1679714539.660352,[ 82  93 523 640 191 171 191 144]
1679714539.675356,[ 93  90 522 711 193 170 183 159]
1679714539.697828,[ 87  98 568 703 167 132 170 156]
1679714539.720271,[ 87  92 680 662 177 112 167 147]
1679714539.736755,[ 81  87 787 718 151 103 147 134]
1679714539.77509,[ 78 119 761 723 160  98 139 123]
1679714539.78861,[ 86 148 799 741 164 134 254 171]
1679714539.811153,[ 82 141 805 767 174 166 281 179]
1679714539.817798,[ 98 144 715 759 164 167 287 185]
1679714539.848711,[101 146 688 721 161 181 302 191]
1679714539.86306,[129 134 645 685 155 209 323 218]
1679714539.877785,[118 101 681 644 156 190 248 169]
1679714539.900323,[118 105 635 637 161 159 219 155]
1679714539.923172,[104 108 630 595 164 182 210 145]
1679714539.939355,[110 105 537 546 157 217 192 158]
1679714539.961789,[ 77 102 607 627 166 192 165 119]
1679714539.982889,[ 80 105 597 655 163 192 143 119]
1679714540.005567,[ 80 113 610 597 157 195 148 112]
1679714540.020364,[ 93 119 617 606 150 201 167 135]
1679714540.04278,[ 89 138 640 672 187 152 160 113]
1679714540.057801,[ 90 131 671 592 174 150 151 113]
1679714540.096058,[ 88 129 579 530 159 147 162 120]
1679714540.102777,[ 99 133 595 526 164 145 199 150]
1679714540.134087,[ 88 152 613 563 159 101 182 131]
1679714540.140283,[ 81 137 591 560 112  96 182 127]
1679714540.171338,[ 85 136 477 579 120 136 237 136]
1679714540.178164,[ 85 136 536 586 120 151 282 147]
1679714540.200324,[ 75 133 563 705 125 146 253 120]
1679714540.23134,[ 75 100 505 706 142 146 250 116]
1679714540.245777,[ 83  98 721 683 159 164 257 125]
1679714540.261818,[ 91  95 712 726 162 159 243 151]
1679714540.292566,[ 88  92 667 703 166 145 190 133]
1679714540.321882,[ 86  86 641 671 163 156 183 131]
1679714540.323206,[ 82  90 699 647 162 160 191 130]
1679714540.342977,[ 92  94 584 764 167 185 245 151]
1679714540.36149,[ 83 100 627 736 163 164 226 138]
1679714540.380413,[ 86 114 684 762 166 161 220 137]
1679714540.4192,[ 84 106 661 687 149 165 238 137]
1679714540.420737,[ 84  99 650 777 132 175 241 136]
1679714540.440395,[ 71 113 579 643 109 133 201 121]
1679714540.463204,[ 65 110 581 628  99 147 206 103]
1679714540.48548,[ 68  99 575 693 113 183 211 108]
1679714540.500412,[ 69 110 625 683 161 194 194 111]
1679714540.546771,[ 71 119 598 552 166 186 180 112]
1679714540.548274,[ 67 123 591 637 188 181 150  94]
1679714540.569142,[ 77 120 578 672 195 196 185 105]
1679714540.591395,[ 69 117 559 665 192 193 184 108]
1679714540.613362,[ 68 132 563 795 219 172 182  99]
1679714540.637217,[ 70 140 610 844 217 170 182  96]
1679714540.644306,[ 70 139 586 867 216 171 186  95]
1679714540.658132,[ 59 149 606 848 214 141 119  71]
1679714540.680438,[ 62 152 619 859 215 101 114  64]
1679714540.704327,[ 60 149 611 848 160  96 111  63]
1679714540.725954,[ 66 143 561 803 174  96 118  66]
1679714540.740344,[ 65 124 553 702 152 111 113  72]
1679714540.762869,[ 76 113 500 678 149 136 144  90]
1679714540.785386,[ 83 112 505 676 144 164 174 110]
1679714540.801772,[ 83 125 485 557 141 173 188 116]
1679714540.822845,[ 82 119 456 546 129 172 186 115]
1679714540.845581,[ 82 118 539 661 158 170 199 124]
1679714540.860365,[ 82 132 609 800 217 176 193 129]
1679714540.892521,[ 86 154 661 787 231 160 178 118]
1679714540.913711,[ 94 130 639 786 228 156 173 134]
1679714540.920425,[ 94 138 691 916 248 155 171 134]
1679714540.943101,[ 98 139 654 885 228 145 170 127]
1679714540.982148,[ 93 129 761 772 179 128 154 121]
1679714540.983356,[ 95 100 658 696 149 116 138 132]
1679714541.002809,[ 83  96 643 724 144 110 137 110]
1679714541.025347,[ 82  79 601 580 103 119 153 116]
1679714541.040844,[ 77  81 572 501 108 146 162 120]
1679714541.06278,[ 82 139 469 565 123 136 176 112]
1679714541.085494,[ 81 145 509 756 141 141 180  97]
1679714541.100465,[ 93 146 663 884 192 140 177 110]
1679714541.122938,[ 97 147 687 884 206 135 164 107]
1679714541.153566,[ 98 157 731 879 208 119 137  98]
1679714541.168584,[ 93 112 676 873 191 122 141 105]
1679714541.192465,[ 84 104 754 764 187 117 135  98]
1679714541.213684,[ 77 117 660 588 133 119 137  91]
1679714541.236139,[ 72 137 662 616 119 119 137  91]
1679714541.242831,[ 67 121 621 738 132 104 140  92]
1679714541.265377,[ 69 130 629 710 177  99 115  85]
1679714541.280308,[ 68 126 551 645 180  92 106  83]
1679714541.303053,[ 67 125 576 667 182 100 100  79]
1679714541.325492,[ 67 101 588 640 181 114 122  78]
1679714541.341793,[ 84 108 670 656 174 123 127 104]
1679714541.363321,[ 79  91 637 676 143 116 129 103]
1679714541.386753,[ 79 104 649 690 134 115 149 109]
1679714541.400714,[ 77  96 607 746 135 121 150 110]
1679714541.422883,[ 85  96 594 719 124 111 133 121]
1679714541.44537,[ 72  89 560 595 107 105 124 103]
1679714541.467846,[ 73 108 605 559  85 120 128 102]
1679714541.484309,[ 75 106 553 570 108 147 143 104]
1679714541.505348,[ 78 101 569 444 104 151 172 107]
1679714541.520331,[ 73 114 625 575 115 162 200 112]
1679714541.550807,[ 73 134 620 627 127 170 220 118]
1679714541.565501,[ 72 123 578 712 153 184 224 121]
1679714541.588354,[ 74 116 604 731 147 174 210 120]
1679714541.602783,[ 72 122 642 808 159 161 183 114]
1679714541.633522,[ 66 130 586 822 170 141 145  93]
1679714541.640233,[ 68 118 693 799 170 130 115  84]
1679714541.662787,[ 75 143 722 827 183 101 120  91]
1679714541.685593,[ 73 142 745 798 173  95 132  88]
1679714541.716201,[ 85 150 719 717 160  92 138  95]
1679714541.722943,[ 86 131 749 658 170 104 142  97]
1679714541.745807,[ 99 137 601 662 178 163 188 114]
1679714541.767872,[ 99 110 551 604 148 176 180 114]
1679714541.784307,[ 97 109 500 611 150 178 176 114]
1679714541.806929,[ 86  99 582 681 154 183 173 108]
1679714541.827729,[ 83 100 512 711 127 180 175 106]
1679714541.850315,[ 64  80 603 747 127 127 122  84]
1679714541.865282,[ 57 102 762 763 150 108 118  83]
1679714541.887816,[100 107 754 788 159 115 122 111]
1679714541.902838,[102  97 757 768 170 111 119 116]
1679714541.925358,[105 105 753 736 171 108 127 122]
1679714541.948094,[107 106 670 709 157 119 143 128]
1679714541.963074,[107  97 608 663 136 118 150 122]
1679714541.985316,[ 86  98 634 732 150 117 153 113]
1679714542.011372,[ 89 100 522 692 131 112 167 116]
1679714542.024289,[ 86  93 531 663 131 107 160 110]
1679714542.045287,[ 87 101 651 772 145  94 144 102]
1679714542.067974,[ 89  85 641 806 154  89 133 103]
1679714542.084313,[ 75  88 631 775 156  84 111  83]
1679714542.105299,[ 74  93 765 817 171  95 102  80]
1679714542.128969,[ 77  91 774 827 175 129 118  99]
1679714542.142763,[ 78  81 724 724 177 135 123 101]
1679714542.165823,[ 75  96 702 776 186 138 132 102]
1679714542.18794,[ 88  98 811 824 187 132 164 131]
1679714542.213724,[ 84  95 694 816 176 126 159 126]
1679714542.225578,[ 80 110 790 809 174 100 156 116]
1679714542.264281,[ 79 122 801 817 170 104 173 121]
1679714542.265792,[ 87 115 769 717 153 143 195 138]
1679714542.285603,[ 72 110 678 566 119 162 171 119]
1679714542.324666,[ 73 110 726 627 145 168 165 122]
1679714542.325913,[ 71  99 651 637 178 174 156 118]
1679714542.346844,[ 71 101 627 624 201 172 135 111]
1679714542.367845,[ 65  99 627 614 200 157  95  86]
1679714542.382881,[ 73  97 620 684 206 130 111  89]
1679714542.405357,[ 71  97 610 638 204 136 120  84]
1679714542.42796,[ 80  95 564 678 180 129 146  93]
1679714542.444351,[ 79 101 605 685 154 132 145  92]
1679714542.465374,[ 72 104 619 744 169 111 138  87]
1679714542.488113,[ 60 105 650 736 166 109 120  69]
1679714542.50293,[ 59 107 608 729 151 112 125  70]
1679714542.52677,[ 65 110 600 752 141 116 114  95]
1679714542.547841,[ 77  91 586 731 142 152 146 132]
1679714542.586776,[ 81  91 629 713 115 166 175 148]
1679714542.588221,[ 88  89 572 698 118 173 180 155]
1679714542.607828,[ 91  95 555 721 116 169 180 156]
1679714542.624529,[ 91 130 619 653 116 163 177 137]
1679714542.647007,[ 82 131 570 631 102 121 152 101]
1679714542.66786,[ 85 135 470 555 102  99 119  86]
1679714542.690368,[ 79 135 488 528  88  90 121  76]
1679714542.705454,[ 84 136 536 484 123 108 132  86]
1679714542.72808,[ 72 104 486 439 125 104 125  88]
1679714542.750428,[ 74 107 499 474 123 127 126  97]
1679714542.781055,[ 98 101 571 511 123 144 167 142]
1679714542.796151,[101 100 562 511 128 158 180 152]
1679714542.810377,[ 94  88 547 498  93 137 168 150]
1679714542.825348,[103  93 556 514 101 157 171 160]
1679714542.880035,[109  89 590 530 106 149 196 170]
1679714542.881593,[ 92 115 689 533 111 147 174 144]
1679714542.885442,[ 92 123 729 533 107 131 155 136]
1679714542.90789,[ 92 121 699 586 115 135 147 130]
1679714542.930684,[ 86 114 672 567 103 130 139 118]
1679714542.946978,[ 80 128 760 592 122 133  98 104]
1679714542.967916,[ 72 103 671 676 140 120  99  93]
1679714542.990524,[ 85 104 626 654 161 140 101  88]
1679714543.00539,[ 91 104 661 629 164 142 108  99]
1679714543.027898,[ 97 121 716 728 198 152 111 102]
1679714543.050497,[100 132 617 711 188 148 129  96]
1679714543.066785,[114 139 602 632 176 158 121  94]
1679714543.087789,[106 132 572 687 168 140 123 100]
1679714543.118654,[104 145 611 651 174 131 120 101]
1679714543.132945,[100 137 581 662 140  99 115  95]
1679714543.15753,[ 99 119 639 752 159 111 131 109]
1679714543.170372,[ 80 122 728 872 200 119 136 109]
1679714543.185332,[ 78 136 788 868 199 121 133 105]
1679714543.20782,[ 71 124 736 917 192 127 135  95]
1679714543.230442,[ 73 121 716 855 186 183 168 123]
1679714543.245446,[ 79 113 628 787 165 172 171 141]
1679714543.267808,[ 85  97 529 638 109 160 165 144]
1679714543.290616,[ 88  76 538 619  91 166 166 144]
1679714543.305412,[ 90  77 624 637  83 168 166 148]
1679714543.34482,[ 93 116 658 683  99 147 152 139]
1679714543.351851,[ 82 120 690 710 112 153 120 108]
1679714543.36677,[ 76 118 747 782 119 146 112  97]
1679714543.389278,[ 75 117 715 848 146 141 151 114]
1679714543.411942,[ 76 121 728 942 188 134 154 114]
1679714543.448814,[ 67  90 709 900 182 100 141  98]
1679714543.463442,[ 71  93 737 975 189 103 150  98]
1679714543.486943,[ 79  98 616 936 191 109 153 106]
1679714543.488328,[ 90  95 596 872 172 133 129 128]
1679714543.507852,[ 97 102 501 799 135 150 164 138]
1679714543.530458,[ 97 104 474 887 173 146 172 139]
1679714543.54532,[ 94  99 428 737 168 137 167 144]
1679714543.567994,[ 87 114 487 774 171 144 193 149]
1679714543.590322,[ 82 123 606 777 178 146 204 139]
1679714543.621008,[ 80 119 610 680 173 133 171 125]
1679714543.635805,[ 81 115 629 659 158 124 166 126]
1679714543.658572,[ 82 120 670 720 171 128 164 124]
1679714543.68923,[ 82 102 682 695 167 126 142 114]
1679714543.690755,[ 73  94 549 671 159 131 130  90]
1679714543.72628,[ 65  90 541 671 161 174 177  92]
1679714543.741044,[ 60  81 533 560 137 176 174  90]
1679714543.756111,[ 62  79 554 492 115 185 182  96]
1679714543.778517,[ 74  84 532 605 133 184 186 116]
1679714543.792952,[ 75  93 607 624 137 166 172 113]
1679714543.807939,[ 77  91 626 625 140 113 159 117]
1679714543.832016,[ 90  93 656 700 161 134 172 120]
1679714543.853063,[ 89  85 558 744 155 120 168 110]
1679714543.876822,[ 83  84 542 666 154 132 165 110]
1679714543.907479,[ 83  95 567 697 177 128 163 110]
1679714543.944928,[ 86 131 691 685 176 134 134 111]
1679714543.946427,[ 92 129 661 640 160 123 123 129]
1679714543.966289,[103 131 671 582 160 144 155 148]
1679714543.981089,[102 139 714 556 144 133 156 136]
1679714543.987928,[103 138 725 761 146 141 155 137]
1679714544.011753,[100 124 684 781 158 141 150 133]
1679714544.032837,[ 82 126 694 800 163 131 148 113]
1679714544.049333,[ 67 130 700 825 164 105 107  89]
1679714544.070313,[ 76 133 670 868 184  99 152  98]
1679714544.093119,[ 71 123 640 722 177  91 158  96]
1679714544.107808,[ 71 113 542 761 168  87 159  91]
1679714544.155468,[ 72 145 649 786 183  85 156  85]
1679714544.161029,[ 76 142 625 785 188 106 170  94]
1679714544.175994,[ 65 129 639 712 166 120 165 107]
1679714544.190362,[ 70 125 586 703 144 126 181 110]
1679714544.212963,[ 66 122 656 695 141 137 183 112]
1679714544.227776,[ 72  96 510 649 117 140 187 123]
1679714544.267564,[ 66  96 517 643 112 126 168 110]
1679714544.273326,[ 73 101 535 646 116 112 126  88]
1679714544.287836,[ 83 111 604 622 138 100  96  97]
1679714544.318544,[ 86 106 540 567 139  84  95  99]
1679714544.332846,[ 87  96 550 655 148 107 108 104]
1679714544.347806,[ 95  97 541 699 155 113 133 122]
1679714544.378571,[ 93  91 615 739 155 111 137 126]
1679714544.39282,[ 83  98 587 754 160 112 133 116]
1679714544.407912,[ 85 110 593 786 159 118 134 118]
1679714544.446051,[ 89 113 592 743 164 111 129 114]
1679714544.453744,[ 80 120 736 710 158 103 113  99]
1679714544.475598,[ 72 126 633 713 168  99 106  85]
1679714544.499044,[ 74 111 623 671 150  94 109  90]
1679714544.512876,[ 77 106 670 656 161 112 112  92]
1679714544.529252,[ 72 105 706 640 152 112 134  94]
1679714544.550311,[ 76 129 665 737 174 112 138 101]
1679714544.572911,[ 81 127 645 729 163 119 147 108]
1679714544.59627,[ 92 133 629 742 171 129 155 114]
1679714544.61182,[ 89 127 593 705 151 116 160 119]
1679714544.632884,[ 90 124 585 721 150 114 164 123]
1679714544.663317,[ 88  87 518 627 137 120 158 115]
1679714544.671748,[ 89  89 623 613 142 121 158 112]
1679714544.693464,[ 73  83 679 692 135 126 162 103]
1679714544.770673,[ 76 104 655 705 139 125 158  97]
1679714544.772053,[ 72 117 648 692 145 131 129  74]
1679714544.777162,[ 69 119 656 634 135 125 127  70]
1679714544.785063,[ 72 118 579 617 133 126 116  75]
1679714544.790264,[ 78 132 550 523 140 124 109  92]
1679714544.821304,[ 70 122 550 613 154 123 109  87]
1679714544.835401,[ 67 119 592 616 142 124 105  89]
1679714544.850699,[ 82 122 532 678 140 123 102 115]
1679714544.872781,[ 79 123 573 714 137 127 123 133]
1679714544.89539,[ 78 123 588 788 154 138 126 126]
1679714544.910355,[ 83 120 639 822 155 141 127 130]
1679714544.934369,[ 83 109 640 803 157 121 124 134]
1679714544.964095,[ 73 121 638 787 167 127 142 122]
1679714544.978539,[ 69 118 603 761 175 116 132 104]
1679714544.993011,[ 66 109 604 764 171  89 125  95]
1679714545.015385,[ 64 113 599 697 161  77 116  89]
1679714545.037859,[ 64 127 586 769 162  76 115  80]
1679714545.054307,[ 71 120 591 799 155  84 105  83]
1679714545.075372,[ 80 124 600 825 148 106 134  93]
1679714545.09784,[ 87 119 584 794 126 116 165 112]
1679714545.122284,[ 85 116 628 791 149 117 165 112]
1679714545.137265,[ 85 110 575 759 157 122 166 113]
1679714545.150335,[ 76 107 663 819 169 111 160 102]
1679714545.174495,[ 67 118 693 838 180  87 129  88]
1679714545.20379,[ 71 126 702 804 188  85 129  99]
1679714545.210318,[ 91 126 629 800 172 150 187 124]
1679714545.234508,[ 92 118 673 765 162 147 195 127]
1679714545.255541,[ 96 116 585 647 139 163 208 140]
1679714545.270861,[ 96  97 636 585 119 174 208 138]
1679714545.308648,[ 94  81 629 556  98 174 183 122]
1679714545.323478,[ 80  78 608 528  95 126 126 102]
1679714545.339303,[ 77  74 594 505  95 135 120  98]
1679714545.354382,[ 68  79 665 555 152 140 109  89]
1679714545.376859,[ 87  83 630 754 177 130 123 117]
1679714545.398089,[ 83  91 574 810 209 126 138 122]
1679714545.414508,[ 79  85 606 808 206 148 146 116]
1679714545.436849,[ 84  87 600 887 205 142 148 121]
1679714545.450431,[ 86  90 586 928 201 127 144 116]
1679714545.472982,[ 81 101 542 864 208 131 132  93]
1679714545.495574,[ 76 107 636 815 179 130 121  73]
1679714545.534002,[ 86 110 614 843 192 138 122  80]
1679714545.540956,[ 86 114 612 742 194 151 127  76]
1679714545.56358,[ 86 114 665 664 160 157 124  75]
1679714545.577812,[ 72 102 667 613 137 157 127  73]
1679714545.592991,[ 74 101 591 656 134 163 146  89]
1679714545.6159,[ 70 116 627 696 151 150 197  95]
1679714545.654373,[ 68 135 707 779 159 152 203  96]
1679714545.655757,[ 68 138 622 838 179 140 201  92]
1679714545.67702,[ 66 140 601 871 195 139 199  90]
1679714545.699296,[ 64 133 598 906 202 138 191  80]
1679714545.712915,[ 82 123 625 835 183 130 140 104]
1679714545.744244,[ 78  99 535 768 170 109 121 101]
1679714545.757904,[ 79  81 540 758 161 110 128 104]
1679714545.772746,[ 83  75 513 644 127 109 135 109]
1679714545.79533,[ 85  84 583 644 118  98 130 113]
1679714545.819326,[ 62  82 560 779 120  86 137  87]
1679714545.832752,[ 73  99 616 802 126  83 158 103]
1679714545.865068,[ 70  97 602 769 111  77 153 103]
1679714545.878494,[ 70 116 704 843 125  67 143  99]
1679714545.892812,[ 67 118 712 801 131  81 145  92]
1679714545.915416,[ 68 117 692 663 120  80 122  88]
1679714545.937992,[ 61  99 621 657 127  87 105  88]
1679714545.952919,[ 63 105 606 660 135  94 111  88]
1679714545.976839,[ 59  85 620 562 129  97 112  86]
1679714545.998024,[ 64 107 599 516 123 139 134  93]
1679714546.012892,[ 93 118 576 532 136 158 156 130]
1679714546.037706,[107 124 590 523 138 168 163 139]
1679714546.057885,[107 120 619 529 125 172 170 142]
1679714546.073156,[108 136 549 542 132 176 173 142]
1679714546.097352,[107 113 503 524 140 138 147 139]
1679714546.11784,[ 88  98 532 571 132 112 148 122]
1679714546.132925,[ 73  93 532 671 139 111 171 113]
1679714546.172236,[ 78  96 612 638 144 111 188 129]
1679714546.201449,[ 77  85 566 640 156 108 187 129]
1679714546.209672,[ 74  94 545 695 150 105 189 129]
1679714546.216746,[ 69  97 564 769 162 101 168 109]
1679714546.237947,[ 67 101 620 665 172  88 140  97]
1679714546.253081,[ 68 103 595 661 173 114 133  91]
1679714546.276819,[ 68  96 612 704 153 114 133  90]
1679714546.297893,[ 65  84 642 739 166 117 134  92]
1679714546.312782,[ 69  79 618 653 162 126 143 106]
1679714546.336827,[ 75  72 582 662 144 139 165 134]
1679714546.359336,[ 74  61 513 654 143 114 143 122]
1679714546.37287,[ 88  53 505 640 139 122 145 138]
1679714546.420691,[ 90  60 504 543 122 123 143 134]
1679714546.422533,[ 92  67 646 583 116 121 144 132]
1679714546.440401,[ 84  69 661 574 103 105 120 108]
1679714546.456926,[ 90  76 707 567  94 139 129 115]
1679714546.509966,[ 76  90 759 586 108 133 131  97]
1679714546.511794,[ 77  96 782 716 119 148 134 103]
1679714546.515478,[ 68  93 721 706 114 148 142  93]
1679714546.537815,[ 69 104 676 728 131 143 123  82]
1679714546.56031,[ 63 113 606 738 144 121 113  84]
1679714546.57539,[ 85 117 558 715 143 121 116 106]
1679714546.613668,[ 83 121 516 609 152 137 159 115]
1679714546.628451,[ 87 116 474 551 152 166 164 124]
1679714546.643397,[ 93 118 564 652 165 171 170 141]
1679714546.657858,[ 85 123 652 670 159 161 170 134]
1679714546.680879,[ 67 113 650 668 161 167 168 118]
1679714546.696846,[ 71 107 676 682 154 161 192 129]
1679714546.719372,[ 94 133 679 680 155 133 197 137]
1679714546.740355,[ 87 133 702 657 144 144 196 121]
1679714546.756951,[ 95 121 637 678 151 146 194 118]
1679714546.786053,[ 95 121 640 668 149 148 191 117]
1679714546.80896,[ 96 127 639 676 158 120 137 102]
1679714546.831291,[ 80 109 599 719 186 123 146  97]
1679714546.838082,[ 81  95 497 620 176 103 150 103]
1679714546.868571,[ 74  91 484 555 169 100 146 102]
1679714546.875304,[ 80  92 531 530 162  87 167 124]
1679714546.898483,[ 76  83 512 576 145  89 165 123]
1679714546.920285,[ 66  82 560 520 100  93 127 107]
1679714546.935429,[ 71  88 589 553 128 106 122 104]
1679714546.958043,[ 73  88 599 652 124 107 131 120]
1679714546.980291,[ 65  86 563 655 130 110 106  99]
1679714547.002841,[ 68  98 676 635 145 120 103  94]
1679714547.017879,[ 77 105 674 651 160 118 123 108]
1679714547.040367,[ 75 103 642 688 144 109 132 115]
1679714547.057093,[ 81 106 648 604 145 114 143 115]
1679714547.079371,[ 88 113 703 738 161 108 143 120]
1679714547.100454,[ 90 105 590 756 161 117 148 117]
1679714547.115362,[ 84  96 566 723 141 101 146 113]
1679714547.137902,[ 84  93 580 673 133 103 138 116]
1679714547.1605,[ 75 101 657 685 159 109 127 100]
1679714547.176871,[ 68  99 577 599 161 114 138 109]
1679714547.230506,[ 66  91 582 506 159  97 128 116]
1679714547.24461,[ 66 102 565 544 171 108 122 112]
1679714547.245783,[ 70 121 556 556 172 102 118 102]
1679714547.258103,[ 70 110 544 529 157 125 144 112]
1679714547.282433,[ 81 107 519 441 137 124 152 115]
1679714547.296913,[ 79 126 500 495 127 136 157 109]
1679714547.319346,[ 74 118 537 534 115 137 154 106]
1679714547.340375,[ 72  99 582 580 138 137 157 110]
1679714547.35612,[ 79 105 523 610 137 115 130 111]
1679714547.386814,[ 72 116 540 668 151 118 115 100]
1679714547.400387,[ 72  99 594 612 149 105 135 105]
1679714547.42289,[ 73 113 567 747 166 100 147 109]
1679714547.43808,[ 73 114 617 784 167 115 144 110]
1679714547.461867,[ 65 111 616 843 168 106 142  93]
1679714547.484472,[ 57  96 620 822 156 111 138  87]
1679714547.505559,[ 65  95 567 836 155 122 138 102]
1679714547.530068,[ 67  94 655 693 134 119 130 100]
1679714547.55116,[ 73 101 584 632 114 147 128 106]
1679714547.574165,[ 71 101 603 608 103 146 126 106]
1679714547.580401,[ 76 115 757 686 110 134 119 107]
1679714547.604539,[ 72 134 793 792 139 120  84  86]
1679714547.619279,[ 74 122 731 793 146 129  73  83]
1679714547.641844,[ 65 114 706 768 139  87  73  69]
1679714547.663302,[ 75 124 700 750 146  91  77  75]
1679714547.677898,[ 74 112 527 719 143 120  91  72]
1679714547.708995,[ 73  84 456 624 124 150 108  69]
1679714547.722955,[ 73  81 481 604 119 141 114  71]
1679714547.739294,[ 72  89 598 591 131 135 112  68]
1679714547.761966,[ 61  87 595 605 143 138 109  60]
1679714547.791295,[ 61  84 658 536 141 134 134  69]
1679714547.798097,[ 53  93 661 619 152 113 130  71]
1679714547.861524,[ 63 111 616 715 170 118 139  99]
1679714547.862983,[ 63 104 581 724 159 121 142 105]
1679714547.883223,[ 70  95 546 687 152 126 149 112]
1679714547.884809,[ 75  98 452 691 155 108 127 121]
1679714547.904179,[ 81  97 450 581 138  99 124 133]
1679714547.925785,[ 73  91 544 482 113  93 110 112]
1679714547.940291,[ 71 104 499 520 138  90 105 109]
1679714547.96281,[ 69 102 495 495 123  96 102 104]
1679714547.977808,[ 63 100 562 496 142  93  92  88]
1679714548.000317,[ 60 106 727 558 173  97  76  70]
1679714548.022877,[ 57 111 709 559 178  97  82  75]
1679714548.03945,[ 59 101 700 516 164 101 109  73]
1679714548.060319,[ 63 113 765 724 181 115 108  76]
1679714548.085141,[ 63 119 745 758 175 120 107  75]
1679714548.129689,[101 126 606 783 154 138 183 144]
1679714548.131219,[111 118 617 823 160 155 188 151]
1679714548.151775,[112 134 637 868 166 159 182 157]
1679714548.157804,[110 127 596 785 158 146 187 164]
1679714548.180546,[110 122 588 753 152 141 203 177]
1679714548.202986,[ 79 121 644 768 158 140 171 130]
1679714548.219322,[ 67 121 656 693 151 136 179 126]
1679714548.240662,[ 61 106 659 643 148 139 183 120]
1679714548.262827,[ 60 101 620 659 159 134 186 112]
1679714548.278229,[ 64 104 631 745 167 155 186 110]
1679714548.311899,[ 60  93 645 691 150 138 161 105]
1679714548.322818,[ 56  84 618 688 165 132 170 107]
1679714548.35369,[ 69  81 570 739 156 128 187 116]
1679714548.360263,[ 81  79 565 666 139 138 192 138]
1679714548.384336,[ 77  78 560 551 115 116 184 126]
1679714548.40536,[ 81  80 491 506 135 112 187 131]
1679714548.427858,[ 84  84 521 683 170 111 164 123]
1679714548.458702,[ 79 119 538 633 176 121 134 112]
1679714548.465324,[ 76 135 566 618 181 121 140  85]
1679714548.480319,[ 85 141 566 629 188 149 154  99]
1679714548.502918,[ 80 135 651 671 172 152 151  93]
1679714548.525547,[ 79 131 640 576 110 147 146  93]
1679714548.540341,[ 72 115 673 603 113 142 143  90]
1679714548.564334,[ 83 114 730 598 108 151 178 114]
1679714548.585319,[ 75 104 744 609 106 130 172 109]
1679714548.600394,[ 76 111 637 575 109 128 173 108]
1679714548.638595,[ 76 112 675 635 147 133 178 111]
1679714548.645255,[ 78 118 717 686 156 153 200 122]
1679714548.660803,[ 65 125 695 720 165 152 150  95]
1679714548.683044,[ 67 148 662 683 177 145 142  87]
1679714548.705319,[ 64 143 804 666 182 149 141  84]
1679714548.720829,[ 60 158 754 559 183 158 140  79]
1679714548.751757,[ 67 144 676 461 175 130 114  79]
1679714548.765766,[ 55 128 663 436 167 105 119  74]
1679714548.780447,[ 57 106 719 524 148 146 125  94]
1679714548.802993,[ 63 117 591 544 138 155 128 109]
1679714548.825335,[ 72 108 548 565 103 154 138 121]
1679714548.847918,[ 71 105 635 581 122 156 138 115]
1679714548.862819,[ 73 104 661 569 111 159 135 127]
1679714548.887107,[ 68 110 618 554 118 138 124 110]
1679714548.92349,[ 69 111 640 561 128 152 162 118]
1679714548.940172,[ 64  98 670 611 161 149 157 110]
1679714548.945688,[ 60 102 591 629 148 152 156 108]
1679714548.961818,[ 64 102 502 633 153 150 155 102]
1679714548.982956,[ 71 100 482 598 151 165 157 112]
1679714549.005596,[ 67  87 544 569 148 139 115  91]
1679714549.020353,[ 66 111 501 497 123 160 115  89]
1679714549.043195,[ 70 130 475 426 122 157 115 106]
1679714549.065271,[ 66 126 544 436 127 160 121 105]
1679714549.080392,[ 68 136 587 502 155 140 128 108]
1679714549.10288,[ 65 142 512 518 161 157 136 110]
1679714549.126094,[ 80 127 541 519 157 137 148 126]
1679714549.149281,[ 83 109 553 549 169 145 152 122]
1679714549.171942,[ 87 108 493 492 162 149 159 130]
1679714549.185352,[ 83  97 525 536 145 183 175 128]
1679714549.200532,[ 90 106 687 607 143 180 166 134]
1679714549.240158,[ 78 106 698 587 141 173 154 119]
1679714549.245277,[ 69 123 747 646 135 169 151 107]
1679714549.26186,[ 69 128 783 704 135 172 149  94]
1679714549.284186,[ 68 124 710 612 125 129 125  83]
1679714549.30683,[ 67 122 548 584 120 120 138  79]
1679714549.327981,[ 69 117 528 652 131 149 173  94]
1679714549.342967,[ 79 105 549 642 161 185 178  98]
1679714549.36559,[ 82 107 514 582 162 173 174 108]
1679714549.396275,[ 91 115 509 620 166 192 177 126]
1679714549.402927,[ 87 104 541 609 173 191 174 131]
1679714549.425461,[ 85 107 575 594 171 171 139 121]
1679714549.448068,[ 78 104 488 635 145 124 129 119]
1679714549.470447,[ 77 105 561 636 142 135 142 134]
1679714549.495036,[ 67  92 626 690 133 107 145 128]
1679714549.516224,[ 64  94 564 672 123  97 136 119]
1679714549.538634,[ 68  94 516 657 121 129 147 127]
1679714549.548779,[ 68  99 593 548 119 128 144 135]
1679714549.57596,[ 68  90 536 610 133 141 131 126]
1679714549.584251,[ 73  93 454 605 145 152 132 130]
1679714549.613683,[ 79 101 526 692 154 160 130 131]
1679714549.627879,[ 76 108 508 769 155 140 117 123]
1679714549.642898,[ 83 121 512 805 152 149 162 138]
1679714549.666789,[ 83 120 505 807 143 139 165 128]
1679714549.704194,[ 76 127 561 799 145 130 153 116]
1679714549.70575,[ 70 139 501 789 151 134 154 113]
1679714549.725289,[ 73 131 602 736 146 124 155 119]
1679714549.751038,[ 77 112 528 736 144 120 121  95]
1679714549.77042,[ 86 123 525 687 141 107 128  95]
1679714549.78675,[ 91 127 478 656 140 113 141 100]
1679714549.807991,[ 92 106 579 611 129  95 141 102]
1679714549.838706,[ 99 108 497 624 133 102 182 132]
1679714549.845474,[ 93 121 578 701 189  98 200 144]
1679714549.867827,[ 78 120 646 749 207 116 195 145]
1679714549.884312,[ 75 120 706 735 210 108 186 151]
1679714549.905649,[ 73 125 619 717 210 109 184 151]
1679714549.928347,[ 63 132 628 726 219 103 151 121]
1679714549.943374,[ 66 120 592 612 191 113 216 142]
1679714549.973695,[ 65 118 575 563 176  99 232 144]
1679714549.996084,[ 58 102 576 525 172 100 230 129]
1679714550.003038,[ 59  94 604 502 166 101 235 128]
1679714550.026883,[ 57  83 587 522 151 109 227 137]
1679714550.04796,[ 80  90 554 619 144 133 216 154]
1679714550.07038,[ 89  86 495 661 149 133 205 155]
1679714550.092918,[ 92  94 416 709 161 137 208 158]
1679714550.109308,[ 91  96 396 760 181 136 201 157]
1679714550.124351,[ 99 104 369 815 197 146 208 160]
1679714550.145283,[ 80 102 367 743 190 131 163 129]
1679714550.168194,[ 73  94 382 756 194 144 173 132]
1679714550.182824,[ 71  86 440 761 180 140 174 129]
1679714550.205323,[ 77  79 423 790 158 145 182 139]
1679714550.227996,[ 75  69 494 721 157 129 181 130]
1679714550.250396,[ 73  74 539 779 195 114 151 119]
1679714550.305434,[ 87  95 607 746 200  93 128 117]
1679714550.311379,[ 94  96 577 761 207 105 136 125]
1679714550.32658,[ 94 101 590 706 211 103 152 129]
1679714550.348339,[ 91 107 657 739 210 103 148 125]
1679714550.357579,[ 86 106 674 683 170 102 152 122]
1679714550.370793,[ 75  92 633 653 148 122 152 119]
1679714550.392864,[ 78  93 621 682 152 132 156 129]
1679714550.416572,[ 81  95 629 644 147 136 155 123]
1679714550.438674,[ 76  93 550 527 121 149 157 123]
1679714550.452999,[ 76  86 481 563 126 149 149 115]
1679714550.46781,[ 71  98 445 626 134 131 144 104]
1679714550.490457,[ 65 117 490 527 116 121 125  86]
1679714550.505393,[ 64 117 515 549 129 132 106  95]
1679714550.536069,[ 64 119 483 707 153 120 124 100]
1679714550.550661,[ 69 120 499 674 153 130 141 108]
1679714550.565379,[ 78 107 486 689 146 151 145 116]
1679714550.597184,[ 75  86 515 692 149 179 218 133]
1679714550.610412,[ 80 100 480 691 137 168 233 130]
1679714550.626753,[ 83 122 586 744 163 183 224 126]
1679714550.649458,[ 82 136 606 835 185 175 218 125]
1679714550.672281,[ 79 137 610 776 194 164 218 117]
1679714550.69381,[ 78 156 602 824 203 121 148  96]
1679714550.708254,[ 77 167 668 894 220 122 126  91]
1679714550.730604,[ 81 144 573 743 181 101 151 118]
1679714550.745344,[ 81 128 530 645 157 112 144 111]
1679714550.768191,[ 80 134 601 707 148 110 144 113]
1679714550.790539,[ 79 144 547 751 137 119 138 111]
1679714550.805674,[ 77 126 495 692 116 114 132 111]
1679714550.827819,[ 73 128 621 660 118 107 106  98]
1679714550.850435,[ 86 134 640 777 122 111 120 131]
1679714550.865336,[ 82 134 616 772 133 129 155 139]
1679714550.88936,[ 84 105 635 742 149 122 163 142]
1679714550.926824,[ 78 102 647 743 148 125 164 136]
1679714550.928413,[ 75 101 517 862 152 122 154 124]
1679714550.94782,[ 57 101 623 764 142 112 145  94]
1679714550.970658,[ 68 104 584 750 132 100 125  94]
1679714550.985403,[ 74 109 628 720 133 107 141 111]
1679714551.008018,[ 72 110 596 675 140 109 147 111]
1679714551.030414,[ 76 110 605 579 130 118 153 118]
1679714551.045267,[ 77 105 489 633 141 123 154 127]
1679714551.075399,[ 72  98 522 718 151 112 143 121]
1679714551.090739,[ 64  81 454 746 162 104 121 102]
1679714551.106819,[ 65  73 428 781 153  98 105  97]
1679714551.136825,[ 80  72 521 729 154  89 128 119]
1679714551.160459,[ 79  80 515 757 144  77 136 114]
1679714551.181214,[ 76  87 471 689 183  81 127 109]
1679714551.187927,[ 76  92 472 620 161  76 134 110]
1679714551.210564,[ 76  94 592 601 159  79 139 110]
1679714551.232855,[ 58 109 557 640 165  99 115  83]
1679714551.249726,[ 68 110 558 642 179 142 149 102]
1679714551.271791,[ 67 103 619 600 136 140 157 105]
1679714551.293002,[ 73 109 659 578 148 144 160 111]
1679714551.307848,[ 77 118 564 684 159 150 184 120]
1679714551.330276,[ 77 107 566 736 164 150 188 122]
1679714551.352983,[ 70  98 603 715 182 115 168 101]
1679714551.379111,[ 74 105 541 741 180 117 178 104]
1679714551.390356,[ 68 114 555 780 192 118 176 101]
1679714551.412927,[ 70 107 713 763 200 111 149  96]
1679714551.42935,[ 68 108 683 741 203  96 153 100]
1679714551.450612,[ 63 109 651 697 193  94 131  91]
1679714551.48107,[ 66 122 749 788 215  90 110  87]
1679714551.487902,[ 72 117 716 766 202  79  99  88]
1679714551.518592,[ 68 108 562 679 187  73 112  84]
1679714551.533033,[ 66 111 563 629 181  87 121  84]
1679714551.547849,[ 69 116 619 632 157 115 141 103]
1679714551.57056,[ 60 104 506 566 126 114 140  98]
1679714551.601727,[ 55  92 517 642 120 117 144  97]
1679714551.608172,[ 63  96 536 643 117 126 174 117]
1679714551.630411,[ 63  91 540 678 120 115 186 118]
1679714551.653095,[ 60  95 481 660 121  90 175 108]
1679714551.668044,[ 61 113 499 679 143  93 173 108]
1679714551.691523,[ 63 120 570 711 161 128 183 122]
1679714551.721291,[ 67 126 595 758 168 123 147 107]
1679714551.743597,[ 71 126 584 727 165 136 160 112]
1679714551.750309,[ 69 135 588 787 166 148 172 115]
1679714551.772916,[ 69 116 594 744 141 151 188 129]
1679714551.787831,[ 64 105 565 639 118 122 178 115]
1679714551.810322,[ 52  99 567 609 105 119 173 110]
1679714551.832985,[ 49 105 599 599 114 100 126  94]
1679714551.847931,[ 61 113 597 496 131  77 106  94]
1679714551.870437,[ 62 115 570 432 137  75  79  80]
1679714551.893092,[ 63 117 599 479 130 131 101  81]
1679714551.923782,[ 66 121 558 454 136 135 107  89]
1679714551.930414,[ 67 116 567 492 128 139 111  89]
1679714551.968352,[ 55  93 613 545 121 135 106  76]
1679714551.985039,[ 67  93 649 629 120 138 106  97]
1679714551.990528,[ 77  96 565 613 119  93  91 108]
1679714552.013288,[ 79 104 621 620 113  84  91 109]
1679714552.036811,[ 79 107 658 639 112  79  88 108]
1679714552.057892,[ 84 113 617 666 133  89  85 111]
1679714552.081274,[ 74 116 660 757 151 123  89  91]
1679714552.08799,[ 70 112 683 765 152 128 103  85]
1679714552.118879,[ 64 122 674 819 162 138 110  78]
1679714552.133,[ 63 121 593 835 169 139 113  76]
1679714552.15539,[ 64 117 673 833 169 139 120  81]
1679714552.170566,[ 72 115 592 715 153 106 116  84]
1679714552.192951,[ 70 118 575 765 174 110  98  83]
1679714552.231706,[ 77  99 581 713 175 104 102  97]
1679714552.233211,[ 80  94 663 771 176 106 118 108]
1679714552.261692,[ 76  84 600 782 167 112 135 109]
1679714552.275588,[ 74  76 628 758 164 130 146 109]
1679714552.314244,[ 73  78 637 707 142 120 152 112]
1679714552.315717,[ 77  79 567 697 129 131 164 132]
1679714552.335774,[ 70  82 486 635 121 130 155 128]
1679714552.350334,[ 69  85 503 602 101 120 135 123]
1679714552.372927,[ 63  92 493 662 129 102 130 120]
1679714552.395346,[ 69  92 444 650 131  98 145 139]
1679714552.410395,[ 72  89 480 666 150 105 143 125]
1679714552.433484,[ 72  94 502 681 168 118 139 120]
1679714552.465037,[ 71 115 461 680 207 122 143 119]
1679714552.477885,[ 78 116 517 663 200 128 141 123]
1679714552.50923,[ 69 117 649 745 200 135 157 100]
1679714552.523487,[ 59 119 694 780 204 150 136  80]
1679714552.530369,[ 71 123 659 738 195 138 144  94]
1679714552.568768,[ 82 111 636 711 159 137 149 130]
1679714552.607427,[ 87 107 575 675 149 132 165 137]
1679714552.608887,[ 99  99 517 553 146 171 138 144]
1679714552.621506,[105 106 472 495 125 147 147 147]
1679714552.635503,[ 99 104 550 600 128 149 137 139]
1679714552.650474,[ 92 115 676 609 124 147 127 107]
1679714552.672844,[ 82 114 690 607 141 142  99  90]
1679714552.695611,[ 73 137 716 790 158  79  85  68]
1679714552.710283,[ 87 133 690 773 161  94 141  89]
1679714552.734474,[ 92 130 688 693 147 114 215 104]
1679714552.779269,[ 90 125 626 705 179 117 226 109]
1679714552.780799,[ 91 125 660 738 178 117 228 112]
1679714552.793153,[ 90 108 596 608 163 118 230 111]
1679714552.824295,[ 93 112 648 638 162 134 221 122]
1679714552.837831,[ 86 108 594 586 164 145 209 118]
1679714552.860333,[ 87 105 571 589 123 146 202 115]
1679714552.875504,[ 95 126 625 588 143 148 201 119]
1679714552.905311,[ 93 126 595 549 143 145 196 118]
1679714552.914424,[ 66 124 543 650 168 115 165  85]
1679714552.93538,[ 70 143 616 705 168  73  90  73]
1679714552.957811,[ 72 138 615 705 174  63  82  75]
1679714552.981901,[ 60 124 506 657 165  59  75  68]
1679714553.004876,[ 58 115 554 667 167  60  73  68]
1679714553.018,[ 56 108 693 610 153  58  74  64]
1679714553.034314,[ 69  87 621 563 151  89  94  82]
1679714553.079276,[ 79  85 618 501 141 121 105  98]
1679714553.080759,[ 78  88 607 572 120 131 110  97]
1679714553.09434,[ 79  89 557 608 121 132 111  99]
1679714553.116848,[ 77  88 510 555 123 132 109  97]
1679714553.154252,[ 59  80 545 623 143 114  83  79]
1679714553.155758,[ 44  77 519 688 149  86  70  54]
1679714553.175547,[ 45  67 618 625 145  82  77  58]
1679714553.197843,[ 55  66 615 555 138 103 101  99]
1679714553.214439,[ 63  65 547 527 119 118 113 119]
1679714553.237119,[ 65  79 592 538  95 117 115 123]
1679714553.25784,[ 69  79 601 548 107 122 127 127]
1679714553.274442,[ 76  73 483 557 109 124 140 143]
1679714553.302991,[ 73  89 514 634 144 113 148 125]
1679714553.325429,[ 67 102 486 718 170  96 142 107]
1679714553.379679,[ 70  96 399 674 168 122 152 108]
1679714553.406807,[ 67 100 417 680 158 131 144 106]
1679714553.407762,[ 59 125 493 788 179 125 125  81]
1679714553.425659,[ 54 115 500 787 152 120  93  67]
1679714553.427374,[ 70 110 494 735 134 121 101  94]
1679714553.437972,[ 82 105 572 718 137 121 116 117]
1679714553.454894,[ 79 108 557 751 157 104 126 115]
1679714553.476841,[ 82  86 519 674 139 106 136 118]
1679714553.497912,[ 86 101 562 691 142 108 152 126]
1679714553.514476,[ 80  92 592 677 144 106 149 112]
1679714553.53682,[ 71  91 519 654 144 134 165 113]
1679714553.56561,[ 79  91 529 610 127 147 170 123]
1679714553.589297,[ 77  92 562 577 137 168 165 124]
1679714553.612537,[ 75  91 560 515 152 165 151 116]
1679714553.61837,[ 69 103 537 535 149 166 157 112]
1679714553.664251,[ 67 130 641 637 164 131 139  98]
1679714553.665836,[ 62 135 632 659 167 128 156  96]
1679714553.679657,[ 59 135 645 673 177  93 158  91]
1679714553.701824,[ 58 128 603 650 182  97 159  97]
1679714553.715436,[ 58 136 600 650 189  96 153  95]
1679714553.746876,[ 50 124 502 678 186  89 135  77]
1679714553.760358,[ 46 115 594 635 181  90  88  59]
1679714553.776864,[ 58 130 607 607 178 101  89  68]
1679714553.797846,[ 59 131 600 633 163 118 113  60]
1679714553.829312,[ 63 120 586 648 150 126 118  63]
1679714553.836803,[ 65 112 730 646 153 127 118  71]
1679714553.891334,[ 72 119 664 631 175 118 140  78]
1679714553.89228,[ 73 116 616 677 167 121 140  79]
1679714553.912498,[ 71 114 622 679 176 110 132  80]
1679714553.941852,[ 69 109 646 649 184 103 132  86]
1679714553.943327,[ 71 110 456 553 164 111 146  84]
1679714553.964417,[ 88 108 464 557 141 116 148 129]
1679714553.977902,[ 83  85 451 500 127 103 148 126]
1679714554.001129,[ 82  84 447 547 127 101 144 127]
1679714554.024369,[ 81  86 419 705 149 105 141 124]
1679714554.04687,[ 78  76 543 727 158 113 132 122]
1679714554.060308,[ 54  86 563 789 183 109 110  69]
1679714554.076777,[ 60  89 545 792 194 114 103  74]
1679714554.097907,[ 66  83 573 819 196 127 132  90]
1679714554.120396,[ 65  81 602 775 184 120 127  88]
1679714554.136846,[ 64  78 497 738 179 107 118  88]
1679714554.181691,[ 68  64 503 666 155 118 121  92]
1679714554.183223,[ 71  72 542 668 140 135 145 115]
1679714554.202941,[ 66  79 505 644 128 128 129 110]
1679714554.21785,[ 68  84 448 514 112 136 135 112]
1679714554.240343,[ 70 106 474 548 118 139 133 112]
1679714554.272502,[ 62 107 451 533 113 129 138 109]
1679714554.277799,[ 65  98 433 535 123 114 123  83]
1679714554.300331,[ 72  98 513 491 119 108 117  90]
1679714554.316862,[ 71 111 579 633 123 102 114  95]
1679714554.337892,[ 75 104 568 595 132 120 119 105]
1679714554.360559,[ 77 104 546 589 129 121 115 104]
1679714554.376837,[ 63 107 617 655 142 125 114 100]
1679714554.413801,[ 86 105 610 613 132 133 142 107]
1679714554.420676,[ 89  94 556 486 123 131 146 110]
1679714554.437039,[ 85  96 554 557 130 114 141 102]
1679714554.465747,[ 86 114 696 667 163 116 140 105]
1679714554.489347,[ 92 119 612 645 146 113 143 112]
1679714554.51296,[ 68 122 555 659 160 105 114  90]
1679714554.51791,[ 60 119 573 705 172 106 107  80]
1679714554.548118,[ 58 105 580 717 155  99 106  78]
1679714554.556777,[ 65  93 396 628 133  96 130 105]
1679714554.579514,[ 58  89 474 570 135  85 135 104]
1679714554.601907,[ 56  94 552 589 138  78 126 103]
1679714554.616826,[ 62  99 567 531 120  86 139 107]
1679714554.638074,[ 62 104 545 540 125  94 143 108]
1679714554.660351,[ 52  95 557 549 132  99 125  83]
1679714554.676931,[ 77  95 610 655 135 111 128  90]
1679714554.699366,[ 82  94 580 616 141 112 139 114]
1679714554.721813,[ 84  87 543 617 158 107 127 116]
1679714554.73684,[ 87  81 607 548 150  95 130 120]
1679714554.759356,[ 89  85 639 552 139  86 123 117]
1679714554.789303,[ 73  95 636 531 135  93 105 108]
1679714554.810999,[ 64  90 638 545 115 112 101  90]
1679714554.817878,[ 61  92 639 530 102 119 116  96]
1679714554.84194,[ 54 102 591 528 110 124 114  91]
1679714554.856945,[ 63 108 586 659 157 130 115  98]
1679714554.877851,[ 62 100 609 606 167 118 122  95]
1679714554.900393,[ 75 104 586 605 172 147 127 100]
1679714554.916837,[ 74 108 650 733 189 149 125  93]
1679714554.953718,[ 76 109 663 804 192 151 123  94]
1679714554.960873,[ 66 102 675 667 154 146 121  86]
1679714554.976836,[ 63 100 565 672 180 152 111  88]
1679714554.999432,[ 51 108 631 758 181 109 104  77]
1679714555.021796,[ 53 111 612 665 167  98  94  75]
1679714555.042894,[ 58 103 614 552 158 111 119  79]
1679714555.066807,[ 62 101 598 630 162 115 143  90]
1679714555.111914,[ 65 118 659 762 182 119 148  87]
1679714555.113303,[ 69 113 664 714 179 118 139  87]
1679714555.119469,[ 65 113 659 696 216 118 135  79]
1679714555.140303,[ 61 117 674 818 224 108 107  65]
1679714555.170286,[ 69 121 642 824 227 118 102  69]
1679714555.179284,[ 81 113 626 695 184 116 129  96]
1679714555.200382,[ 75 110 570 770 204 111 134  99]
1679714555.223024,[ 84 109 532 836 186 129 153 117]
1679714555.253529,[ 95 103 475 747 179 167 217 143]
1679714555.261801,[ 89 103 481 690 171 157 219 144]
1679714555.301463,[ 79 102 474 699 176 156 203 133]
1679714555.302941,[ 81  94 499 603 147 155 198 130]
1679714555.320486,[ 92  89 507 580 115 151 189 140]
1679714555.34462,[ 81  96 553 549 113 114 117 116]
1679714555.366937,[ 90 104 646 608 168 125 115 127]
1679714555.389471,[ 92  94 598 572 168 117 113 121]
1679714555.410812,[ 91  92 547 564 171 118 115 121]
1679714555.419291,[ 75 108 596 704 193 108 111  95]
1679714555.440921,[ 79 112 588 819 216 100 129 102]
1679714555.473133,[ 65  97 502 769 182  87 109  73]
1679714555.479541,[ 60  96 514 796 174 108 116  72]
1679714555.509268,[ 59  96 538 778 172 108 115  74]
1679714555.538342,[ 59  82 591 609 147 104 113  73]
1679714555.555006,[ 55  62 598 513 109  93  83  60]
1679714555.560331,[ 54  69 605 523 116  96  79  59]
1679714555.598361,[ 55  87 631 547 120  65  73  65]
1679714555.606775,[ 61  96 652 581 135  83  76  71]
1679714555.621807,[ 64 102 542 569 129  84  98  76]
1679714555.644634,[ 61 102 507 514 130 122 114  78]
1679714555.659427,[ 64  98 518 592 134 120 115  81]
1679714555.681852,[ 63  93 465 558 130 122 110  78]
1679714555.70297,[ 56  90 389 517 109 117 106  67]
1679714555.719328,[ 54  90 386 513 107 120  96  67]
1679714555.740339,[ 59  94 421 541 111  88  85  72]
1679714555.779283,[ 58  96 410 564  92  89  85  72]
1679714555.780748,[ 61  88 512 578 118  93  92  75]
1679714555.807875,[ 63  96 555 612 127  86  98  80]
1679714555.846939,[ 80  97 582 743 156  93 112 100]
1679714555.848308,[ 85 110 600 732 157 109 112 101]
1679714555.862015,[ 84 110 603 653 151 105 112 102]
1679714555.884465,[ 82 110 623 641 140 101 109 100]
1679714555.899275,[ 85 105 604 665 140 114 112 108]
1679714555.921984,[ 68  91 571 614 115 109  98  87]
1679714555.942817,[ 59  72 552 629 113  96 104  92]
1679714555.965555,[ 57  71 518 625 112 102 103  90]
1679714555.980443,[ 55  93 439 663 123 101 102  89]
1679714556.002988,[ 51  98 491 683 128  91  96  76]
1679714556.025973,[ 49 116 546 655 125  88  83  70]
1679714556.042979,[ 49 124 505 656 121  75  66  52]
1679714556.062894,[ 54 131 526 673 126  71  81  64]
1679714556.086836,[ 59 118 493 623 105 112  98  74]
1679714556.107855,[ 58 125 491 576  99 108 111  80]
1679714556.15473,[ 55 113 471 492 101 105 115  84]
1679714556.156129,[ 58 111 505 619 117 104 116  85]
1679714556.161794,[ 59 105 480 641 110 100 104  80]
1679714556.206991,[ 58 101 597 645 107  81 105  95]
1679714556.208338,[ 67  84 562 613  97  93 106 122]
1679714556.220368,[ 65  88 592 625 102  95 104 123]
1679714556.243084,[ 62 113 660 584 108  95 102 122]
1679714556.265358,[ 63 112 670 719 139  97 102 122]
1679714556.280392,[ 76 126 624 804 170  90  88 114]
1679714556.302824,[ 72 126 681 809 172  82  83  86]
1679714556.325509,[ 73 122 639 844 165  85  82  83]
1679714556.341831,[ 76  90 543 774 150  88  86  93]
1679714556.363234,[ 72  90 546 615 132  88  84  88]
1679714556.392901,[ 55  72 548 489  90  69  80  76]
1679714556.402233,[ 55  87 565 590 103  74  67  66]
1679714556.438954,[ 61  95 558 537 103  84  72  74]
1679714556.453145,[ 62  96 642 572 110  84  96  68]
1679714556.462277,[ 66 102 648 606 118 102 109  74]
1679714556.482817,[ 67 102 608 746 140 103 117  78]
1679714556.505327,[ 66  97 540 653 138 116 116  80]
1679714556.521815,[ 62  94 555 699 145 116 121  72]
1679714556.542811,[ 63 104 514 685 157 120 111  78]
1679714556.565568,[ 62 100 476 658 153 104 114  86]
1679714556.581831,[ 68  97 449 536 134 114 107  90]
1679714556.604436,[ 69 111 489 697 135  97 120 100]
1679714556.62619,[ 77 109 483 700 144 106 131 111]
1679714556.641893,[ 72 118 450 710 142 109 128 103]
1679714556.663719,[ 69 116 481 727 150 121 115  91]
1679714556.686978,[ 62 123 549 692 154 115 114  84]
1679714556.707809,[ 58 104 483 524 142 113  99  68]
1679714556.738648,[ 45 103 535 425 122  93  70  49]
1679714556.753604,[ 51  92 578 491 107  82  56  47]
1679714556.760552,[ 54  88 562 461  95  98  82  60]
1679714556.783034,[ 59  84 500 480  93 100  94  72]
1679714556.806816,[ 62  95 623 476 103  99 100  81]
1679714556.821904,[ 62 106 570 522 122  99 104  83]
1679714556.84301,[ 59  98 510 479 122 100 103  82]
1679714556.865293,[ 62 105 525 577 127  87  89  79]
1679714556.888281,[ 57 107 546 571 120  90  75  69]
1679714556.904268,[ 58  93 471 683 132  92  72  62]
1679714556.925278,[ 58  79 475 677 121  89  76  68]
1679714556.956057,[ 61  88 581 687 128  89  84  73]
1679714556.962963,[ 56  90 589 590 129  83  93  72]
1679714556.986851,[ 73  81 583 563 130 122 120  80]
1679714557.009859,[ 70  80 514 422 113 136 122  80]
1679714557.022847,[ 83  87 496 484 112 141 122  82]
1679714557.047408,[ 80  82 453 488 121 146 118  76]
1679714557.076146,[ 82  80 477 487 118 147 109  77]
1679714557.082881,[ 78  84 485 554 123 150 121  85]
1679714557.11382,[ 76 112 569 740 183 141 134  89]
1679714557.127833,[ 64 124 631 724 191 142 133  84]
1679714557.142875,[ 76 126 640 657 177 141 137  94]
1679714557.173033,[ 74 123 613 661 170 139 140 101]
1679714557.243826,[ 70 129 635 677 189 133 118  93]
1679714557.245452,[ 76 108 581 523 136 127 108  92]
1679714557.257951,[ 75  92 523 498 119 123 106  91]
1679714557.258756,[ 66  82 506 511 119 117 101  83]
1679714557.264977,[ 91  87 500 545 134 121 117 110]
1679714557.286893,[ 88  83 456 470 104  79 110 118]
1679714557.309637,[ 83 100 435 427  97  82  99 114]
1679714557.33077,[ 84  94 422 407  99  82 100 115]
1679714557.352833,[ 94  96 495 558 112 104 133 120]
1679714557.376035,[ 71 127 554 622 139 120 145  92]
1679714557.382843,[ 69 132 593 655 151 132 146  87]
1679714557.405353,[ 70 121 640 649 153 137 150  86]
1679714557.428108,[ 75 122 796 816 209 143 151  87]
1679714557.466761,[ 74 123 716 728 211 130 130 101]
1679714557.468309,[ 78  82 667 638 182 112 127 108]
1679714557.496221,[ 80  75 701 618 182  95 127 105]
1679714557.502986,[ 81  80 689 807 215 103 136 112]
1679714557.527925,[ 78  80 509 719 178  96 140 110]
1679714557.556375,[ 66  89 538 726 173 109 135  94]
1679714557.562866,[ 63  91 610 767 174 102 107  80]
1679714557.585467,[ 65 105 564 884 178 119 105  74]
1679714557.607919,[ 67 111 517 723 139 107  94  70]
1679714557.63042,[ 61 114 638 625 128 103  77  68]
1679714557.65303,[ 57 106 632 744 165  91  74  60]
1679714557.667743,[ 56 110 570 764 181  92  65  55]
1679714557.683174,[ 57  94 525 651 165  77  94  55]
1679714557.706781,[ 54  77 544 642 162 117 106  57]
1679714557.729587,[ 61  96 496 840 185 126 114  66]
1679714557.757294,[ 61 100 510 724 158 127 117  67]
1679714557.773442,[ 62 105 535 660 139 125 128  79]
1679714557.796096,[ 58 111 543 637 148 124 125  82]
1679714557.802928,[ 69 131 619 691 156  86 117  85]
1679714557.842759,[ 68 116 654 493 125  88 116  89]
1679714557.863562,[ 71 132 716 601 161  87 120  96]
1679714557.878593,[ 69 129 687 642 163  88 111  87]
1679714557.885321,[ 63 142 681 676 167  83  87  82]
1679714557.916079,[ 52 124 689 652 166  87  78  71]
1679714557.939056,[ 67 123 600 699 190 136 120  89]
1679714557.945429,[ 67 105 489 612 160 145 132  94]
1679714557.967992,[ 76 113 541 614 175 148 135 103]
1679714557.998691,[ 79  89 635 582 175 150 135 103]
1679714558.005917,[ 80 105 565 655 181 153 138 115]
1679714558.027866,[ 74 106 577 612 171 145 137 106]
1679714558.051799,[ 73 106 619 618 162 137 134 101]
1679714558.072927,[ 67  91 603 615 154 135 133  95]
1679714558.089296,[ 70 108 653 682 161 133 135  97]
1679714558.142454,[ 68 100 659 592 145 124 129  82]
1679714558.143957,[ 58 101 673 613 133  67  87  69]
1679714558.163925,[ 68 103 679 667 147  98  83  85]
1679714558.170356,[ 79 109 676 684 136 117 109 106]
1679714558.185429,[ 78  99 555 611 116 120 108 110]
1679714558.207823,[ 77  93 560 632 117 120 113 116]
1679714558.230818,[ 80  90 651 637 105 127 115 116]
1679714558.245347,[ 87  83 631 642 122 114 105 116]
1679714558.267906,[ 76  78 607 625 130  95  74  96]
1679714558.292061,[ 73  63 649 727 153  89  76  88]
1679714558.329495,[ 72  81 639 703 158  89  75  81]
1679714558.343614,[ 70  88 524 678 159  84  75  81]
1679714558.350347,[ 50 102 536 692 177  78  76  57]
1679714558.372889,[ 54  99 632 671 181  72  78  60]
1679714558.38943,[ 51 107 599 626 166  88  78  62]
1679714558.410348,[ 53 117 609 661 167  93  76  71]
1679714558.441124,[ 53 116 672 715 165  82  86  72]
1679714558.455394,[ 74 106 652 650 125  75  87  90]
1679714558.470318,[ 72 110 577 706 125  76  90  86]
1679714558.487063,[ 79 104 564 661 123  83 100  96]
1679714558.51565,[ 81  78 552 662 122  81  97  95]
1679714558.530618,[ 82  79 500 620 121  98  83  88]
1679714558.545477,[ 68  80 534 605 112 107 123  83]
1679714558.568037,[ 68  88 641 578 100 107 125  85]
1679714558.651669,[ 64  94 660 647  99 107 117  82]
1679714558.658922,[ 63 114 664 770 118 128 156  89]
1679714558.69812,[ 65 125 642 830 185 129 192 105]
1679714558.700577,[ 64 197 724 883 239 145 178 110]
1679714558.705008,[ 75 197 708 899 238 145 197 118]
1679714558.710339,[ 75 196 721 797 228 129 179 110]
1679714558.72548,[ 80 217 738 772 200 127 143 103]
1679714558.748026,[ 82 174 724 741 134 116 137  89]
1679714558.770373,[ 80 171 635 746 134 111 131  85]
1679714558.792891,[ 68 172 678 670 138 101 109  73]
1679714558.808042,[ 70 175 669 741 164 112 124  84]
1679714558.832199,[ 63 138 670 703 147 119 147  92]
1679714558.85296,[ 61 113 573 715 168 127 147  91]
1679714558.869399,[ 64 114 526 813 178 133 152 101]
1679714558.890446,[ 64 108 519 841 178 143 158 104]
1679714558.929772,[ 78 112 482 758 156 137 153 115]
1679714558.931522,[ 72 132 523 747 159 124 134 103]
1679714558.960467,[ 76 134 617 709 166 124 133 106]
1679714558.973119,[ 74 134 660 581 159 121 131 102]
1679714558.995708,[ 79 182 656 537 166 123 139 101]
1679714559.026115,[ 61 167 693 557 166 120 131  76]
1679714559.041087,[ 72 154 673 526 179 164 146  89]
1679714559.055694,[ 72 156 710 477 151 166 167 106]
1679714559.070399,[ 70 159 697 543 153 166 177 109]
1679714559.093031,[ 69 124 698 637 164 154 169 110]
1679714559.115475,[ 73 133 721 669 198 182 179 121]
1679714559.130431,[ 67 133 748 702 199 147 167 116]
1679714559.153274,[ 64 166 719 798 193 136 143  97]
1679714559.168145,[ 65 175 708 765 192 131 126  87]
1679714559.190618,[ 61 166 685 750 179 131 118  83]
1679714559.215028,[ 57 157 723 747 174 108  88  71]
1679714559.227839,[ 55 155 670 776 168 115 100  73]
1679714559.268172,[ 65 127 574 692 177 136 113  80]
1679714559.272836,[ 64 144 647 736 196 131 109  88]
1679714559.295395,[ 61 140 690 723 211 133 102  81]
1679714559.310568,[ 63 139 587 732 191 112 104  87]
1679714559.332872,[ 62 139 570 704 175 106  88  81]
1679714559.347995,[ 49 149 595 766 177  97 101  79]
1679714559.370389,[ 48 142 525 760 158  97 117  76]
1679714559.392996,[ 54 158 487 782 152  95 122  77]
1679714559.408092,[ 54 167 531 774 147  99 127  69]
1679714559.438025,[ 65 169 649 785 148 138 137  79]
1679714559.484973,[ 65 161 672 777 154 128 124  81]
1679714559.486416,[ 65 173 695 814 167 128 110  78]
1679714559.490297,[ 61 164 666 758 158 132 112  77]
1679714559.52233,[ 66 157 669 803 162 142 125  84]
1679714559.529369,[ 56 153 592 739 154 109 126  82]
1679714559.566356,[ 61 156 558 705 152 107 128  80]
1679714559.57298,[ 63 139 551 644 158 115 131  93]
1679714559.587798,[ 61 132 630 634 151 106 126  91]
1679714559.611987,[ 57 149 641 530 149 106 108  87]
1679714559.633638,[ 61 153 621 549 156  99 114  83]
1679714559.647896,[ 59 141 694 505 162 101 110  87]
1679714559.679295,[ 53 133 659 482 146 116 122  76]
1679714559.692819,[ 59 127 604 470 149 123 132  89]
1679714559.71535,[ 61 120 578 513 164 116 130  93]
1679714559.7393,[ 57 115 659 491 168 126 116  89]
1679714559.752802,[ 65 122 594 533 155 126 128  90]
1679714559.792354,[ 68 113 649 524 161 126 142  96]
1679714559.793362,[ 66 116 609 520 155 120 140  94]
1679714559.812929,[ 60 109 621 497 134 120 140  87]
1679714559.836824,[ 58 110 529 538 145 106 139  89]
1679714559.859404,[ 50  99 481 512 138 108 126  86]
1679714559.874304,[ 55  84 396 527 125  81  96  83]
1679714559.895456,[ 53  84 490 583 130  95  90  74]
1679714559.910332,[ 56  72 502 653 155  88  89  74]
1679714559.933188,[ 57  76 498 699 145  98  88  69]
1679714559.955478,[ 54  72 567 772 156 104  87  59]
1679714559.977858,[ 51  97 619 758 156 104  83  55]
1679714560.017404,[ 53 130 630 745 168  94  84  52]
1679714560.018251,[ 53 138 625 747 159  94  91  54]
1679714560.039345,[ 55 140 628 719 154 120 131  68]
1679714560.068621,[ 62 143 561 649 141 124 138  77]
1679714560.083614,[ 57 129 519 700 139 121 137  76]
1679714560.09057,[ 62 103 517 764 157 124 133  86]
1679714560.112909,[ 62 115 487 743 169 124 134  87]
1679714560.135328,[ 77 141 487 810 199 105 107  90]
1679714560.150448,[ 75 147 550 855 228  93  96  84]
1679714560.172977,[ 73 145 592 867 230  94  99  79]
1679714560.203951,[ 70 145 557 831 232  87  97  70]
1679714560.210525,[ 66 149 534 777 219 105 102  64]
1679714560.241283,[ 63 127 531 706 190  90  95  88]
1679714560.255356,[ 64 121 498 645 156  88 108 103]
1679714560.27946,[ 68 124 510 584 151  93 108 106]
1679714560.316543,[ 74 132 495 485 111 111 119 115]
1679714560.331728,[ 85 133 567 471  98 150 140 135]
1679714560.333222,[ 81 122 602 638 138 154 140 121]
1679714560.352873,[ 81 123 622 759 161 154 131 112]
1679714560.375709,[ 86 125 629 764 173 154 135 117]
1679714560.390331,[ 82 124 681 791 170 153 132 112]
1679714560.413276,[ 71 105 643 860 177 120 102  87]
1679714560.4434,[ 67 130 598 710 153 120 117  88]
1679714560.45184,[ 79 144 564 565 125 133 125 105]
1679714560.488588,[ 83 145 534 521 105 138 134 110]
1679714560.495771,[ 80 144 473 517 120 126 134 109]
1679714560.51034,[ 85 148 474 602 125 110 130 112]
1679714560.548579,[ 81 127 486 620 121 102 111 102]
1679714560.555428,[ 65 105 560 621 123  89 105  84]
1679714560.570391,[ 50 117 634 638 133  81  86  66]
1679714560.60729,[ 61 116 619 644 123 107 102  71]
1679714560.616825,[ 57 111 625 440 100 111 117  83]
1679714560.631959,[ 60 127 656 433  97 110 116  84]
1679714560.660441,[ 59 189 611 463 110 111 113  83]
1679714560.675573,[ 79 194 480 486 112 120 146 100]
1679714560.698268,[ 73 195 508 477 104  98 149 101]
1679714560.712918,[ 74 191 527 620 110  86 137  88]
1679714560.735486,[ 74 181 497 693 118  90 138  87]
1679714560.758242,[ 81 121 520 668 112 101 163 105]
1679714560.780425,[ 64  94 607 672 103 105 141  92]
1679714560.796934,[ 69  88 590 718 124 110 127  94]
1679714560.826255,[ 69  93 596 767 173 116 126  95]
1679714560.832953,[ 68  99 615 765 187 115 125  94]
1679714560.855597,[ 60 100 617 819 200  99  87  73]
1679714560.877908,[ 57 100 537 826 208  81  75  70]
1679714560.900329,[ 58  91 584 822 202  93  94  76]
1679714560.917137,[ 62  87 512 708 178 116 104  83]
1679714560.939407,[ 64  87 535 716 181 123 115  88]
1679714560.960502,[ 65  97 488 750 179 125 120  93]
1679714560.983712,[ 65 101 506 737 168 122 125  96]
1679714560.997886,[ 54  98 482 693 168 108 107  84]
1679714561.013408,[ 53 118 564 689 163  94  98  74]
1679714561.03697,[ 48 118 549 598 141  87  88  69]
1679714561.05789,[ 50 100 601 502 127 126  95  74]
1679714561.074424,[ 50 106 631 459 131 129  95  70]
1679714561.104116,[ 55 110 617 546 148 130  95  73]
1679714561.134287,[ 51 100 607 661 144 118  93  71]
1679714561.136008,[ 65  97 618 649 134 131 112  96]
1679714561.155463,[ 64  99 560 637 129 108 130 101]
1679714561.178036,[ 68 100 536 824 147 116 131 104]
1679714561.194341,[ 65 111 605 810 166 117 131 100]
1679714561.231024,[ 68 116 619 721 161 138 133 102]
1679714561.239556,[ 61 124 565 777 178 125 115  88]
1679714561.252938,[ 62 134 579 836 182 120  95  80]
1679714561.275377,[ 78 133 659 685 167 118  94  88]
1679714561.298263,[ 80 122 607 629 143 129 102  96]
1679714561.312841,[ 80 107 539 678 168 112 102  95]
1679714561.337002,[ 76 105 633 733 178 122 103  90]
1679714561.358085,[ 81  90 654 701 180 121 101  83]
1679714561.37344,[ 66  92 563 740 190 116  96  69]
1679714561.412825,[ 69  95 559 831 200 110  85  61]
1679714561.41784,[ 66  93 564 764 173 105  90  59]
1679714561.433173,[ 68  93 529 698 147  92 125  66]
1679714561.471085,[ 60 110 532 707 159  93 125  70]
1679714561.477807,[ 70 116 592 725 160  93 129  79]
1679714561.500387,[ 65 118 546 647 140  80 135  79]
1679714561.515437,[ 68 118 555 652 148  91 145  84]
1679714561.537899,[ 65 115 597 602 149  97 133  80]
1679714561.553571,[ 64  99 559 606 126 101 128  83]
1679714561.575406,[ 52  93 572 580 108 105 133  87]
1679714561.597974,[ 49 108 634 623 104 105 126  84]
1679714561.613168,[ 54 113 737 655 103 105 112  83]
1679714561.635395,[ 61 110 660 714 108 128 105  85]
1679714561.659357,[ 68 117 674 708 108 120 113  83]
1679714561.689985,[ 65 115 664 643 108 111 102  69]
1679714561.702814,[ 77  98 741 705 127 116 112  76]
1679714561.726108,[ 76 100 654 701 135 143 128  76]
1679714561.748703,[ 69  95 691 674 142 122 131  72]
1679714561.755503,[ 65  95 698 645 150 123 128  68]
1679714561.77793,[ 65  91 695 687 158 121 128  72]
1679714561.800359,[ 58  95 638 588 140 118 120  71]
1679714561.815887,[ 54 101 636 687 142  76 106  73]
1679714561.839345,[ 72 118 593 708 152  78 103  93]
1679714561.860384,[ 75 130 637 736 169  87 105  94]
1679714561.875709,[ 84 126 588 716 164  98 121  97]
1679714561.899334,[ 84 123 524 720 174 103 128 112]
1679714561.920387,[ 92 119 506 593 160 115 129 113]
1679714561.936936,[ 78 112 621 562 140 138 125  99]
1679714561.958068,[ 78  93 553 501 111 135 148 114]
1679714561.980392,[ 71  91 561 548 131 159 147 115]
1679714562.004407,[ 72 114 610 523 125 175 150 101]
1679714562.018564,[ 66 104 632 537 138 182 154 111]
1679714562.040377,[ 78  97 520 620 150 168 159 117]
1679714562.055303,[ 85 101 577 668 161 176 139 103]
1679714562.077886,[ 83 103 576 605 159 163 127 100]
1679714562.100407,[ 86  88 596 689 178 143 132 112]
1679714562.115359,[ 83  99 600 800 184 128 157 100]
1679714562.137917,[ 88 112 713 745 181 126 156  98]
1679714562.160807,[ 82 105 702 802 176 128 163 104]
1679714562.18295,[ 85 110 759 866 200 125 184 118]
1679714562.199565,[ 82 108 709 781 183 139 182 105]
1679714562.228384,[ 84 113 709 705 180 144 171 113]
1679714562.236922,[ 83 105 724 759 179 161 173 121]
1679714562.259288,[ 85 127 726 667 184 159 173 133]
1679714562.289153,[ 89 130 653 587 160 163 175 129]
1679714562.295412,[ 93 152 699 804 191 156 177 133]
1679714562.317953,[105 167 712 801 205 170 182 135]
1679714562.340386,[103 176 670 800 204 165 205 132]
1679714562.355503,[106 188 647 861 208 172 224 137]
1679714562.377968,[111 193 668 897 225 176 240 153]
1679714562.400456,[111 175 695 732 205 172 243 153]
1679714562.41689,[106 158 699 707 188 173 243 160]
1679714562.43798,[ 97 158 649 683 196 163 233 160]
1679714562.468295,[ 98 137 695 707 214 145 209 143]
1679714562.484432,[112 147 763 665 196 156 215 131]
1679714562.505475,[131 144 722 690 197 199 239 146]
1679714562.53672,[135 173 687 793 198 180 227 140]
1679714562.538244,[139 170 708 755 195 180 211 131]
1679714562.557836,[134 166 710 680 170 184 214 128]
1679714562.581851,[122 156 621 698 170 195 232 157]
1679714562.602967,[110 167 694 666 178 155 205 143]
1679714562.617862,[101 140 717 582 172 168 210 135]
1679714562.640586,[101 131 713 582 179 197 215 137]
1679714562.662947,[115 133 670 607 180 193 271 176]
1679714562.677958,[105 119 727 662 175 169 233 149]
1679714562.700425,[ 96 119 635 777 180 209 252 157]
1679714562.723024,[100 120 589 807 200 200 261 169]
1679714562.738606,[104 129 598 854 198 167 259 172]
1679714562.785636,[ 90 137 611 840 198 171 194 136]
1679714562.787252,[100 151 636 847 212 195 182 148]
1679714562.813816,[102 144 603 858 198 154 153 136]
1679714562.820391,[ 93 143 738 878 215 151 137 122]
1679714562.845986,[ 92 135 791 833 217 154 138 119]
1679714562.866603,[107 141 815 807 217 185 158 146]
1679714562.880365,[116 126 741 759 193 167 223 145]
1679714562.902979,[120 132 766 628 185 164 231 154]
1679714562.917832,[120 132 675 529 134 168 234 154]
1679714562.940335,[117 150 726 642 137 187 266 161]
1679714562.962996,[108 143 725 672 168 184 272 162]
1679714562.979298,[100 177 770 686 205 189 232 150]
1679714563.000494,[ 95 180 756 673 213 202 256 150]
1679714563.04735,[105 206 808 717 219 203 263 155]
1679714563.053828,[109 203 713 602 212 192 228 148]
1679714563.068309,[107 198 714 570 188 202 223 133]
1679714563.091276,[100 167 698 561 157 199 235 136]
1679714563.105391,[108 159 687 605 156 197 200 129]
1679714563.120736,[111 136 629 597 169 224 187 137]
1679714563.159437,[116 140 621 632 166 220 205 139]
1679714563.160916,[119 149 557 700 175 199 203 138]
1679714563.181834,[120 159 613 712 185 237 191 132]
1679714563.203019,[107 163 648 709 178 246 215 140]
1679714563.217983,[ 97 158 687 805 191 223 203 127]
1679714563.240452,[ 85 142 646 816 196 228 188 126]
1679714563.294046,[ 78 145 684 773 186 215 183 119]
1679714563.301779,[ 74 147 632 879 186 164 169 125]
1679714563.303267,[ 80 156 741 894 199 170 153 125]
1679714563.347342,[ 79 165 729 776 177 173 158 126]
1679714563.371618,[ 87 175 779 874 178 184 163 143]
1679714563.373022,[ 87 176 834 936 177 190 162 147]
1679714563.392471,[ 93 166 813 828 169 187 156 156]
1679714563.413894,[129 158 684 815 159 162 163 175]
1679714563.420311,[139 151 653 838 157 162 185 182]
1679714563.44289,[137 138 663 741 154 135 179 168]
1679714563.458117,[151 162 666 741 184 154 228 170]
1679714563.481977,[153 164 663 754 193 154 240 172]
1679714563.502933,[128 161 739 762 210 146 238 156]
1679714563.517938,[115 152 769 754 213 138 226 144]
1679714563.540405,[121 156 747 780 225 146 238 148]
1679714563.563111,[103 116 670 820 229 132 201 154]
1679714563.601868,[ 99 124 671 867 244 127 193 155]
1679714563.603426,[ 95 127 757 849 238 124 179 147]
1679714563.622847,[ 97 137 750 860 255 123 259 166]
1679714563.653892,[103 136 707 814 241 158 316 193]
1679714563.667924,[103 154 782 722 225 171 315 188]
1679714563.690891,[109 155 795 735 203 180 321 182]
1679714563.714992,[107 143 639 711 191 196 332 185]
1679714563.720327,[105 129 565 672 169 197 273 168]
1679714563.742959,[109 153 639 699 178 226 217 157]
1679714563.765583,[121 143 544 715 174 212 221 181]
1679714563.780276,[119 140 585 722 162 203 204 171]
1679714563.802955,[124 178 679 778 186 190 182 164]
1679714563.825437,[138 186 716 772 187 203 211 185]
1679714563.848222,[135 178 667 739 179 139 204 176]
1679714563.871402,[129 166 656 686 172 133 195 142]
1679714563.894009,[127 164 599 564 181 139 204 145]
1679714563.901131,[147 145 492 509 163 159 284 155]
1679714563.924372,[140 142 498 585 161 153 273 133]
1679714563.946881,[127 139 494 556 154 189 270 122]
1679714563.967811,[119 142 533 625 144 191 264 116]
1679714563.991258,[127 143 568 681 159 202 273 133]
1679714564.013738,[111 126 626 674 161 188 274 154]
1679714564.020421,[109 120 594 824 172 179 285 159]
1679714564.043285,[105 103 688 881 189 136 271 151]
1679714564.073639,[109 109 728 861 196 155 288 161]
1679714564.080613,[105 108 718 829 173 148 342 175]
1679714564.102835,[ 86 105 697 874 169 162 291 151]
1679714564.125526,[111 106 776 690 158 169 311 184]
1679714564.164275,[113 118 714 712 135 170 322 191]
1679714564.165802,[114 130 680 703 134 152 315 191]
1679714564.217596,[127 132 720 829 188 159 258 176]
1679714564.219009,[131 138 704 821 198 153 252 187]
1679714564.222833,[114 146 674 816 207 157 196 157]
1679714564.245951,[120 140 643 768 235 156 191 161]
1679714564.260402,[128 128 638 806 251 156 181 164]
1679714564.292557,[110 130 549 655 222 138 163 153]
1679714564.305401,[119 138 653 561 214 134 160 161]
1679714564.320364,[117 148 597 583 218 159 234 161]
1679714564.343278,[125 148 572 669 204 174 246 161]
1679714564.365535,[112 153 542 572 174 174 250 151]
1679714564.380381,[110 156 698 619 187 181 251 148]
1679714564.410766,[114 154 730 710 198 192 282 147]
1679714564.425333,[128 136 726 729 208 169 234 156]
1679714564.449557,[121 135 739 613 194 150 212 151]
1679714564.464593,[122 127 755 676 204 152 201 151]
1679714564.486839,[122 122 686 655 195 162 210 152]
1679714564.507884,[109 117 558 575 177 136 157 126]
1679714564.524528,[ 90 115 590 536 141 126 134  95]
1679714564.546827,[ 87 114 581 525 143 128 148  82]
1679714564.568284,[ 93 122 570 434 129 137 179  91]
1679714564.590447,[ 98 138 542 380 112 117 184  91]
1679714564.621153,[ 94 129 544 496 139 120 190  96]
1679714564.628034,[ 94 132 493 551 166 134 251 103]
1679714564.642893,[ 91 137 499 639 182 142 248 107]
1679714564.674024,[ 97 134 557 742 228 130 262 118]
1679714564.68868,[103 121 513 783 257 132 248 121]
1679714564.702862,[108 147 523 772 254 133 272 116]
1679714564.725632,[107 147 622 809 247 121 234 118]
1679714564.764239,[112 152 643 754 243 122 233 135]
1679714564.765786,[123 166 639 738 231 133 216 166]
1679714564.793526,[119 173 798 762 201 130 232 174]
1679714564.809419,[121 156 797 716 192 124 202 179]
1679714564.824422,[122 158 749 636 190 158 207 175]
1679714564.845618,[120 162 776 688 187 152 210 169]
1679714564.867874,[ 98 148 753 709 148 144 204 124]
1679714564.883367,[ 95 132 599 668 143 156 189 121]
1679714564.905377,[ 86 144 639 675 147 161 180 118]
1679714564.927954,[ 84 157 730 663 134 152 168 114]
1679714564.943087,[ 91 151 699 627 131 156 172 120]
1679714564.965454,[108 161 698 545 142 159 185 142]
1679714564.997515,[104 229 760 609 170 141 188 139]
1679714565.01084,[112 227 718 605 165 140 193 142]
1679714565.033646,[113 215 634 604 168 115 193 148]
1679714565.047961,[113 210 632 629 163 127 236 158]
1679714565.064403,[ 97 213 624 656 156 152 219 144]
1679714565.085652,[103 152 591 593 118 160 220 144]
1679714565.108019,[119 146 566 624 149 175 238 159]
1679714565.124433,[125 168 609 646 165 177 260 166]
1679714565.146866,[117 172 649 657 183 180 230 157]
1679714565.168488,[157 273 703 641 379 245 255 171]
1679714565.184307,[227 316 639 602 400 257 289 217]
1679714565.206241,[262 323 678 572 387 280 304 222]
1679714565.227968,[262 349 739 751 404 287 280 214]
1679714565.242899,[271 356 675 788 398 279 270 219]
1679714565.265395,[257 280 625 775 264 215 281 219]
1679714565.289464,[196 218 701 790 244 200 254 174]
1679714565.310428,[133 235 711 831 263 159 238 164]
1679714565.334831,[140 187 611 654 235 172 270 177]
1679714565.356174,[196 214 672 547 232 173 299 188]
1679714565.363171,[197 214 632 527 188 171 267 179]
1679714565.385306,[195 222 567 522 183 182 282 174]
1679714565.407858,[196 190 572 477 157 214 287 172]
1679714565.425628,[206 191 648 535 158 193 258 181]
1679714565.445558,[147 138 586 540 174 214 229 163]
1679714565.47752,[133 141 612 579 172 234 229 163]
1679714565.490951,[143 149 635 630 208 229 211 175]
1679714565.506828,[140 156 688 614 226 201 183 169]
1679714565.552508,[123 154 586 532 216 202 201 158]
1679714565.566725,[122 147 644 521 214 206 239 170]
1679714565.568238,[120 137 641 457 211 177 237 160]
1679714565.589597,[118 125 711 404 182 178 226 146]
1679714565.610366,[122 123 608 377 169 175 257 163]
1679714565.632881,[128 121 685 405 182 195 290 165]
1679714565.648599,[135 130 661 485 192 172 272 170]
1679714565.678822,[137 134 696 546 195 192 266 172]
1679714565.685993,[136 129 594 537 187 188 284 189]
1679714565.707862,[139 129 605 534 207 185 267 174]
1679714565.730412,[128 118 547 515 196 159 262 180]
1679714565.745665,[128 125 599 460 172 177 267 165]
1679714565.767893,[131 128 688 433 188 171 278 169]
1679714565.790576,[134 128 713 424 187 177 265 172]
1679714565.813177,[135 128 699 410 149 173 261 168]
1679714565.827796,[158 147 694 586 161 179 222 179]
1679714565.858577,[155 144 660 819 186 148 199 186]
1679714565.865411,[152 146 505 818 170 129 187 182]
1679714565.889421,[153 152 514 852 207 122 170 162]
1679714565.911284,[154 146 696 883 224 162 175 175]
1679714565.933177,[147 148 698 914 244 161 181 153]
1679714565.947871,[153 164 684 771 244 174 187 143]
1679714565.978587,[161 168 731 805 256 185 181 141]
1679714565.985436,[177 161 771 777 229 212 247 146]
1679714566.008206,[175 156 610 791 221 201 233 142]
1679714566.054231,[155 139 633 641 198 199 254 137]
1679714566.05578,[136 117 605 556 176 199 254 127]
1679714566.070915,[155 119 610 545 167 191 301 168]
1679714566.129762,[141 121 564 591 165 157 271 167]
1679714566.131227,[146 132 591 544 161 141 268 164]
1679714566.137492,[160 150 633 629 213 146 247 178]
1679714566.150245,[165 184 650 616 251 154 270 197]
1679714566.1657,[170 177 634 610 251 169 259 196]
1679714566.189354,[173 192 613 638 266 174 263 202]
1679714566.210546,[177 234 679 772 340 183 294 195]
1679714566.225735,[189 253 638 723 308 187 308 192]
1679714566.255582,[208 254 624 836 282 187 319 217]
1679714566.270522,[191 259 695 857 276 200 301 201]
1679714566.285452,[196 265 684 832 258 233 331 219]
1679714566.308004,[188 224 667 744 156 243 320 227]
1679714566.330387,[168 193 614 724 161 263 307 220]
1679714566.354545,[145 154 647 610 149 258 282 183]
1679714566.368569,[144 138 580 542 148 240 288 195]
1679714566.398666,[131 148 634 658 176 203 255 172]
1679714566.429315,[134 174 600 631 195 201 261 170]
1679714566.431065,[139 194 642 684 187 198 274 180]
1679714566.45245,[139 234 721 795 238 210 317 193]
1679714566.489627,[136 240 728 814 274 210 310 178]
1679714566.490914,[135 237 677 673 263 208 289 176]
1679714566.510489,[132 221 725 695 252 200 284 177]
1679714566.533048,[128 237 757 679 272 213 272 171]
1679714566.547886,[132 209 662 600 240 203 216 160]
1679714566.570434,[126 224 690 573 201 199 202 151]
1679714566.592907,[163 238 760 647 225 217 288 197]
1679714566.607893,[165 272 784 653 230 206 290 188]
1679714566.670798,[190 285 792 613 210 168 294 212]
1679714566.67237,[234 288 811 573 203 168 363 269]
1679714566.675402,[239 273 790 616 229 183 377 271]
1679714566.700032,[214 240 733 597 199 176 321 248]
1679714566.721165,[221 230 723 613 219 202 313 260]
1679714566.727975,[214 229 721 631 242 197 337 253]
1679714566.750456,[167 259 776 671 264 198 250 185]
1679714566.781087,[163 275 807 816 268 213 253 192]
1679714566.787908,[161 276 840 844 278 209 261 188]
1679714566.810397,[166 261 797 825 253 188 267 191]
1679714566.833291,[151 224 736 821 236 198 225 176]
1679714566.855394,[151 183 704 892 225 198 240 189]
1679714566.870394,[170 174 678 730 184 163 215 178]
1679714566.892997,[167 174 665 683 180 176 234 182]
1679714566.907928,[156 174 696 714 187 190 247 183]
1679714566.939628,[186 183 787 728 178 185 267 212]
1679714566.953183,[190 216 808 637 254 217 249 204]
1679714566.97543,[190 243 829 654 258 215 263 213]
1679714566.991999,[199 256 814 637 251 211 246 222]
1679714567.021085,[202 286 759 615 282 222 255 230]
1679714567.044061,[186 279 712 576 294 222 236 215]
1679714567.050447,[185 274 732 595 243 181 248 211]
1679714567.074413,[172 250 642 584 255 204 251 213]
1679714567.088079,[185 273 664 659 280 230 270 212]
1679714567.110341,[183 240 730 620 253 241 278 193]
1679714567.133283,[168 248 715 703 258 242 279 174]
1679714567.147867,[170 222 607 710 243 260 314 228]
1679714567.170352,[168 213 632 726 239 256 324 229]
1679714567.201217,[148 171 619 679 214 224 306 211]
1679714567.207916,[140 190 654 750 198 186 270 207]
1679714567.231805,[161 202 673 765 197 189 311 229]
1679714567.254645,[156 215 670 716 190 181 310 188]
1679714567.275404,[153 220 672 682 181 199 320 188]
1679714567.297905,[153 220 723 645 180 219 376 209]
1679714567.321293,[156 232 664 574 186 229 381 213]
1679714567.343984,[135 200 594 553 176 227 364 195]
1679714567.350731,[173 203 714 613 197 236 379 200]
1679714567.372944,[175 209 689 673 219 222 355 192]
1679714567.395355,[174 227 660 694 216 198 294 169]
1679714567.410768,[167 188 732 719 221 191 284 168]
1679714567.43316,[180 236 803 659 221 205 274 170]
1679714567.455444,[150 216 729 649 202 204 239 173]
1679714567.472119,[146 204 734 727 191 202 248 167]
1679714567.50868,[152 193 720 713 212 210 244 169]
1679714567.523558,[171 201 644 716 215 242 257 194]
1679714567.555716,[180 159 579 699 201 237 254 235]
1679714567.557333,[170 167 653 672 200 231 226 220]
1679714567.576946,[166 192 709 650 195 249 216 220]
1679714567.599733,[162 202 685 674 176 248 230 224]
1679714567.614535,[151 227 668 694 181 221 277 208]
1679714567.643728,[149 234 701 727 195 264 261 149]
1679714567.650567,[151 240 633 698 207 264 250 139]
1679714567.672937,[152 227 594 607 215 244 242 138]
1679714567.695999,[150 217 680 628 224 250 311 149]
1679714567.710421,[140 202 700 590 211 249 263 131]
1679714567.733603,[117 182 752 598 204 205 316 149]
1679714567.755669,[134 177 725 646 214 201 378 191]
1679714567.786114,[151 197 798 759 239 219 383 205]
1679714567.793241,[152 198 730 734 240 222 382 196]
1679714567.815388,[152 214 726 748 255 222 382 199]
1679714567.838009,[150 232 630 729 268 215 353 187]
1679714567.852838,[148 247 653 702 256 219 300 175]
1679714567.875498,[154 243 624 586 213 202 297 167]
1679714567.899387,[180 235 704 578 208 194 215 188]
1679714567.921219,[192 209 653 533 180 195 203 200]
1679714567.935585,[202 198 653 635 166 206 210 210]
1679714567.951111,[204 198 726 658 148 215 246 206]
1679714567.981135,[190 192 694 668 173 231 261 198]
1679714567.995509,[165 192 648 677 161 222 260 176]
1679714568.010348,[148 188 681 764 173 214 267 157]
1679714568.03287,[137 232 748 687 166 199 283 147]
1679714568.055702,[115 217 672 647 191 173 254 116]
1679714568.07031,[115 201 626 789 210 147 240 129]
1679714568.094303,[108 243 606 796 244 152 241 125]
1679714568.132062,[111 247 673 725 244 164 242 124]
1679714568.13384,[110 197 607 699 237 159 189 121]
1679714568.152919,[110 206 604 891 258 172 212 131]
1679714568.175645,[114 209 626 784 229 178 225 121]
1679714568.190455,[108 170 681 806 211 183 214 112]
1679714568.221107,[117 187 650 844 203 180 319 146]
1679714568.235494,[133 200 632 859 224 196 363 183]
1679714568.259416,[133 183 650 712 186 189 346 190]
1679714568.273084,[133 221 717 715 200 172 327 190]
1679714568.296828,[146 212 656 724 191 175 331 195]
1679714568.318314,[146 200 672 698 226 190 229 185]
1679714568.33301,[138 211 664 837 238 181 156 163]
1679714568.355463,[146 217 706 838 247 198 141 158]
1679714568.378602,[154 181 606 798 227 201 157 164]
1679714568.392865,[147 191 637 838 239 195 152 160]
1679714568.423575,[150 183 609 846 212 179 156 160]
1679714568.437998,[153 173 675 747 202 167 143 149]
1679714568.461947,[159 189 616 720 208 175 202 157]
1679714568.476947,[145 188 651 772 249 176 200 149]
1679714568.497941,[141 181 654 721 241 168 197 149]
1679714568.513523,[130 192 689 746 267 156 192 146]
1679714568.551156,[136 190 712 680 261 215 276 156]
1679714568.557981,[129 210 772 654 251 207 260 153]
1679714568.572997,[145 234 732 680 212 206 267 162]
1679714568.595557,[149 231 769 695 229 213 275 162]
1679714568.61783,[198 248 693 692 212 272 347 195]
1679714568.634441,[191 245 654 710 199 223 299 188]
1679714568.655523,[185 219 632 808 207 203 279 178]
1679714568.686234,[177 190 735 809 240 219 270 172]
1679714568.693474,[194 207 721 806 223 215 301 203]
1679714568.715523,[152 243 850 793 248 175 228 168]
1679714568.737923,[143 283 879 946 268 186 224 159]
1679714568.753182,[161 287 837 876 253 223 300 207]
1679714568.775491,[158 296 849 853 224 223 323 207]
1679714568.797895,[143 290 860 963 268 220 290 178]
1679714568.812989,[132 262 726 959 250 206 288 174]
1679714568.835441,[136 220 731 866 238 216 289 195]
1679714568.857924,[110 216 808 867 256 199 220 162]
1679714568.872888,[119 251 808 858 302 223 229 173]
1679714568.903575,[124 257 794 835 293 229 235 173]
1679714568.918091,[147 321 907 831 290 225 224 170]
1679714568.933317,[142 322 858 829 289 210 223 153]
1679714568.955447,[170 330 821 890 287 213 239 187]
1679714568.978409,[166 302 797 863 258 183 226 195]
1679714568.992787,[159 316 800 800 259 185 223 198]
1679714569.015542,[149 231 721 755 255 191 222 200]
1679714569.038106,[149 234 764 752 250 193 221 206]
1679714569.05305,[142 225 766 722 242 173 198 185]
1679714569.075591,[152 239 704 705 227 200 203 187]
1679714569.106146,[205 203 657 571 193 211 237 234]
1679714569.112944,[207 193 623 638 196 201 232 238]
1679714569.143576,[224 193 714 616 216 229 243 245]
1679714569.158054,[226 207 716 648 242 244 247 245]
1679714569.173588,[225 223 699 648 242 227 246 242]
1679714569.195515,[180 239 692 679 240 217 224 201]
1679714569.217957,[185 268 737 619 223 244 252 220]
1679714569.240495,[165 309 701 710 232 226 239 206]
1679714569.255351,[151 323 770 657 225 218 269 189]
1679714569.286207,[136 325 824 695 280 238 273 181]
1679714569.300628,[153 332 801 874 333 257 285 182]
1679714569.323017,[153 322 899 893 358 254 317 188]
1679714569.337931,[153 301 853 842 343 257 326 202]
1679714569.369408,[144 273 773 831 335 260 295 197]
1679714569.37549,[159 256 789 821 290 240 268 210]
1679714569.413643,[159 285 880 617 238 241 278 231]
1679714569.428862,[157 298 784 581 206 242 299 211]
1679714569.435644,[187 270 801 633 204 224 304 214]
1679714569.458003,[207 268 856 687 210 216 314 217]
1679714569.480438,[201 253 840 736 231 207 315 200]
1679714569.495708,[208 211 771 758 225 183 332 210]
1679714569.526611,[233 192 698 824 242 191 278 266]
1679714569.540583,[213 230 779 772 242 205 259 258]
1679714569.555693,[199 266 799 714 247 216 271 255]
1679714569.577971,[211 280 788 634 231 228 298 261]
1679714569.601883,[207 266 802 649 237 229 260 245]
1679714569.615773,[168 269 863 735 249 190 237 172]
1679714569.637832,[185 273 794 731 267 206 261 188]
1679714569.660369,[199 249 707 715 258 204 245 197]
1679714569.691094,[193 257 686 724 269 191 236 186]
1679714569.697878,[172 255 654 704 261 183 223 161]
1679714569.720476,[187 241 676 560 247 207 243 193]
1679714569.73537,[172 239 597 635 227 184 232 184]
1679714569.757829,[165 251 616 696 239 232 375 221]
1679714569.78053,[159 247 607 732 218 232 367 248]
1679714569.827597,[164 265 654 753 212 232 365 254]
1679714569.829018,[149 279 560 719 192 225 420 259]
1679714569.840754,[175 259 557 623 182 235 437 286]
1679714569.855432,[166 226 539 549 165 192 364 263]
1679714569.878068,[169 215 555 548 189 207 381 252]
1679714569.900667,[170 211 602 632 177 223 390 251]
1679714569.916839,[183 215 612 694 184 221 345 259]
1679714569.938567,[159 225 688 725 202 235 378 241]
1679714569.960456,[157 284 745 837 227 229 341 229]
1679714569.976927,[146 278 762 868 220 215 335 222]
1679714569.997936,[186 289 720 793 228 220 360 284]
1679714570.020447,[175 269 793 738 214 227 348 273]
1679714570.035686,[180 252 731 719 205 210 306 257]
1679714570.066089,[183 201 665 676 194 224 314 262]
1679714570.080572,[209 211 633 608 206 271 306 269]
1679714570.096022,[192 184 599 599 191 267 297 231]
1679714570.117911,[213 221 565 662 222 255 288 223]
1679714570.141053,[206 229 568 657 229 253 274 215]
1679714570.155457,[206 234 631 631 200 250 254 205]
1679714570.178436,[181 244 657 604 174 217 247 201]
1679714570.200514,[202 262 663 677 202 210 227 231]
1679714570.239345,[178 223 582 768 189 214 243 214]
1679714570.240795,[194 238 613 819 189 217 237 232]
1679714570.260472,[200 233 622 846 223 218 242 248]
1679714570.282828,[199 235 625 885 250 196 243 236]
1679714570.305436,[169 258 656 853 240 196 240 182]
1679714570.328732,[175 261 700 740 231 193 272 203]
1679714570.351612,[156 235 756 652 237 177 267 195]
1679714570.357968,[166 242 802 628 255 158 313 198]
1679714570.38084,[178 233 767 646 247 172 310 197]
1679714570.403093,[185 203 718 625 247 176 316 199]
1679714570.419504,[189 233 693 663 251 181 279 191]
1679714570.441957,[187 247 616 712 245 178 272 175]
1679714570.462913,[171 242 601 669 204 166 217 149]
1679714570.478075,[156 271 643 657 192 165 290 155]
1679714570.540505,[137 256 678 653 220 156 316 165]
1679714570.542027,[132 231 724 646 216 144 325 159]
1679714570.545606,[132 231 728 675 211 171 329 154]
1679714570.562026,[132 247 656 706 227 197 333 170]
1679714570.592787,[153 207 702 702 221 195 290 180]
1679714570.597971,[159 208 694 751 195 203 243 156]
1679714570.628603,[165 226 702 848 251 228 222 152]
1679714570.651135,[164 241 674 771 253 222 287 166]
1679714570.657801,[166 222 690 772 236 214 380 185]
1679714570.680583,[147 218 594 822 255 210 373 178]
1679714570.70322,[134 240 677 903 268 194 368 173]
1679714570.717847,[122 237 671 764 220 214 371 180]
1679714570.740775,[162 217 696 812 221 225 325 193]
1679714570.763166,[154 233 653 811 234 211 194 157]
1679714570.78556,[156 225 724 769 211 209 173 146]
1679714570.800799,[158 225 696 596 197 223 196 157]
1679714570.830969,[179 255 635 594 184 180 250 178]
1679714570.839673,[160 275 637 605 190 152 255 168]
1679714570.868613,[159 258 712 621 175 152 259 167]
1679714570.882935,[165 275 678 590 182 173 325 189]
1679714570.89797,[170 248 586 597 171 170 328 198]
1679714570.930184,[139 216 689 661 240 168 292 170]
1679714570.951121,[122 263 699 655 255 185 290 154]
1679714570.957894,[121 271 713 648 267 200 296 171]
1679714570.981965,[121 297 767 664 273 184 270 168]
1679714571.002946,[118 313 784 677 292 177 276 155]
1679714571.017883,[121 306 686 643 238 176 263 149]
1679714571.040405,[117 299 703 603 215 153 250 155]
1679714571.071258,[150 299 596 581 197 144 294 184]
1679714571.085498,[148 298 514 515 192 150 265 191]
1679714571.100461,[164 295 555 610 172 176 247 210]
1679714571.13859,[187 296 600 592 181 192 292 230]
1679714571.14537,[197 258 535 620 190 195 297 240]
1679714571.160535,[189 261 541 564 224 196 261 219]
1679714571.18472,[200 224 595 583 216 236 311 236]
1679714571.20569,[194 227 531 496 202 223 329 226]
1679714571.227876,[173 239 576 654 227 209 293 209]
1679714571.251124,[162 232 617 676 262 214 291 199]
1679714571.265459,[159 212 625 737 255 212 274 187]
1679714571.288235,[139 239 730 753 259 149 254 149]
1679714571.304333,[123 251 797 780 265 144 222 133]
1679714571.325505,[119 244 811 666 237 149 218 126]
1679714571.355487,[122 230 789 603 196 180 243 125]
1679714571.371856,[112 250 841 526 165 211 257 141]
1679714571.385416,[110 235 738 586 162 222 204 140]
1679714571.416342,[123 210 696 506 155 243 241 159]
1679714571.431877,[127 216 593 483 158 240 268 177]
1679714571.44566,[123 210 627 507 138 224 248 171]
1679714571.467869,[119 193 626 527 124 194 261 159]
1679714571.4844,[154 229 703 525 116 189 256 155]
1679714571.505556,[163 281 708 617 141 172 237 145]
1679714571.52789,[170 278 817 645 180 193 231 132]
1679714571.544394,[175 306 841 691 213 202 232 132]
1679714571.565851,[174 310 837 693 239 197 215 131]
1679714571.587877,[170 282 766 623 251 209 222 175]
1679714571.604415,[160 242 784 573 249 208 232 178]
1679714571.626848,[151 236 717 536 222 193 205 178]
1679714571.648085,[145 223 648 476 194 180 203 187]
1679714571.671803,[155 216 611 449 185 181 199 197]
1679714571.693027,[138 217 581 492 190 189 201 163]
1679714571.709412,[133 198 576 507 194 184 235 151]
1679714571.731851,[130 192 612 561 206 177 241 146]
1679714571.745394,[136 175 638 559 199 188 236 136]
1679714571.768066,[147 218 692 591 192 199 256 150]
1679714571.784362,[135 210 703 595 180 177 246 135]
1679714571.805507,[132 208 661 613 182 162 179 134]
1679714571.822574,[154 221 627 580 172 166 195 167]
1679714571.844346,[164 219 661 580 180 157 291 202]
1679714571.88938,[158 183 716 637 221 146 289 191]
1679714571.895423,[170 189 736 610 214 141 289 196]
1679714571.904362,[184 194 773 582 205 167 314 226]
1679714571.926957,[194 191 810 685 201 171 328 228]
1679714571.947914,[185 197 805 669 205 180 277 216]
1679714571.971978,[180 199 721 617 153 189 267 232]
1679714571.992942,[178 198 684 685 163 213 299 248]
1679714572.015664,[199 240 699 658 147 217 395 266]
1679714572.024567,[178 231 609 536 140 229 410 257]
1679714572.045998,[174 246 683 590 136 209 386 246]
1679714572.067895,[170 255 696 581 135 205 391 227]
1679714572.084488,[167 275 722 556 136 191 388 221]
1679714572.105367,[141 235 692 532 140 218 284 185]
1679714572.129467,[133 273 758 605 192 200 227 166]
1679714572.144685,[130 261 715 580 194 200 225 159]
1679714572.165549,[132 241 657 559 201 215 230 153]
1679714572.189339,[131 219 623 492 195 205 250 194]
1679714572.204476,[125 224 646 735 220 155 253 195]
1679714572.241622,[125 199 649 884 232 174 280 208]
1679714572.248164,[132 196 567 864 231 197 299 212]
1679714572.272444,[142 226 663 867 217 183 297 235]
1679714572.29306,[148 246 685 908 232 185 283 194]
1679714572.307939,[135 277 710 747 208 185 266 172]
1679714572.324365,[151 283 777 503 152 170 279 182]
1679714572.345418,[168 285 803 511 149 147 321 200]
1679714572.368402,[153 257 717 505 148 149 314 176]
1679714572.384355,[162 242 802 460 116 148 309 188]
1679714572.405585,[166 197 793 544 127 155 306 187]
1679714572.431189,[155 181 670 624 148 170 281 166]
1679714572.444573,[149 196 672 707 166 177 211 155]
1679714572.48931,[166 215 763 766 191 168 210 156]
1679714572.490854,[147 197 671 732 189 172 184 139]
1679714572.528748,[144 203 687 655 178 161 176 139]
1679714572.530089,[138 208 743 656 190 146 189 132]
1679714572.571854,[122 200 787 650 186 139 197 129]
1679714572.573407,[122 197 727 575 162 158 197 139]
1679714572.585413,[151 219 749 600 170 156 190 159]
1679714572.607952,[168 239 737 669 191 165 196 163]
1679714572.624568,[189 239 737 586 183 219 221 179]
1679714572.646971,[193 236 667 483 170 255 249 171]
1679714572.668001,[191 268 726 566 171 239 250 178]
1679714572.684427,[186 274 693 635 188 244 248 172]
1679714572.714465,[181 286 752 639 190 258 276 186]
1679714572.744794,[187 287 774 631 173 230 329 207]
1679714572.752069,[187 297 832 684 184 196 325 215]
1679714572.766924,[175 255 771 660 195 202 319 200]
1679714572.80454,[158 247 792 591 213 204 332 199]
1679714572.80599,[167 238 685 562 216 186 311 200]
1679714572.826843,[136 216 583 577 223 170 234 167]
1679714572.848127,[123 189 528 647 232 168 213 153]
1679714572.870381,[137 199 586 640 240 176 230 171]
1679714572.887285,[144 198 609 689 210 163 229 162]
1679714572.907877,[124 186 579 646 191 157 245 163]
1679714572.930471,[131 209 668 660 177 149 233 160]
1679714572.94756,[147 247 722 597 164 140 220 167]
1679714572.967878,[139 333 784 597 151 121 206 160]
1679714572.999386,[132 336 822 597 161 134 187 159]
1679714573.01443,[136 323 898 635 172 132 190 145]
1679714573.039863,[129 311 853 631 171 127 201 158]
1679714573.074888,[127 317 850 597 167 135 205 155]
1679714573.083177,[130 231 803 671 180 141 204 155]
1679714573.087789,[129 234 757 625 168 126 199 159]
1679714573.11074,[128 247 708 625 158 127 168 154]
1679714573.126972,[135 249 792 611 157 150 151 139]
1679714573.155452,[130 224 744 605 148 140 140 136]
1679714573.171932,[129 223 693 466 120 158 189 141]
1679714573.194452,[166 203 637 433 117 195 299 169]
1679714573.208172,[166 186 647 363 112 192 308 167]
1679714573.230426,[157 206 606 446 139 173 298 162]
1679714573.247071,[155 204 676 560 186 184 305 170]
1679714573.276817,[162 210 700 585 211 175 297 156]
1679714573.291916,[133 244 818 735 236 135 201 116]
1679714573.330431,[119 322 857 785 264 129 195 118]
1679714573.331614,[126 311 838 776 266 153 208 123]
1679714573.350371,[119 305 921 688 233 161 206 107]
1679714573.3748,[102 345 973 734 210 149 180 110]
1679714573.403613,[ 83 321 895 606 186 147 167 100]
1679714573.426859,[ 85 247 820 546 137 149 154  93]
1679714573.428458,[ 71 258 814 523 124 124 139  89]
1679714573.448335,[ 84 256 726 586 153 124 159 113]
1679714573.470713,[ 98 256 674 515 151 152 182 128]
1679714573.494774,[ 99 262 676 485 142 155 182 132]
1679714573.507844,[104 262 691 504 154 155 183 139]
1679714573.537927,[131 308 808 605 182 195 187 156]
1679714573.546877,[189 325 841 674 182 213 189 192]
1679714573.576842,[190 294 891 726 200 203 164 186]
1679714573.599392,[195 301 937 761 202 258 179 192]
1679714573.60746,[193 300 934 799 205 264 185 192]
1679714573.627896,[201 258 810 718 172 243 183 199]
1679714573.65322,[165 244 780 606 150 228 176 154]
1679714573.674803,[164 220 735 560 129 216 174 140]
1679714573.689488,[166 205 638 544 142 158 162 148]
1679714573.714503,[169 215 674 445 129 154 154 149]
1679714573.727033,[140 198 652 463 143 152 149 122]
1679714573.763615,[116 185 551 470 165 129 120 118]
1679714573.770673,[101 169 510 492 173 130 104 118]
1679714573.786876,[ 89 170 589 511 173 111 121 114]
1679714573.82367,[ 93 170 690 553 176 120 121 108]
1679714573.8305,[105 222 746 523 165 125 126 107]
1679714573.847351,[106 247 757 500 140 122 137 119]
1679714573.869422,[106 256 713 438 121 126 180 134]
1679714573.890499,[104 310 693 468 115 127 160 122]
1679714573.937848,[ 92 317 563 463 115 104 158 118]
1679714573.939313,[ 74 278 534 468 120  84 150 117]
1679714573.958264,[ 65 256 524 494 138 104 146 105]
1679714573.967639,[ 67 263 572 492 139 100 105  85]
1679714573.996478,[ 69 190 516 391 123  97  99  75]
1679714574.012087,[ 69 161 485 324 112  98  94  73]
1679714574.033368,[ 68 147 427 292  93  97  93  70]
1679714574.053711,[ 64 142 388 226  61  65  81  59]
1679714574.071888,[ 50 132 380 287  67  58  47  45]
1679714574.109593,[ 45 155 420 372 100  59  35  39]
1679714574.111035,[ 44 147 402 380 103  56  59  53]
1679714574.133323,[ 43 143 398 367 104  54  67  56]
1679714574.162633,[ 56 134 363 340  97  70  90  79]
1679714574.168146,[ 59 127 274 287  92  91 104  97]
1679714574.194773,[ 63  88 216 200  65  89 109 101]
1679714574.213235,[ 65 106 294 201  64  89 101  95]
1679714574.236983,[ 66 132 325 219  67  88  96  93]
1679714574.251229,[ 55 132 328 231  68  75  76  76]
1679714574.280505,[ 52 159 350 222  62  46  57  55]
1679714574.290375,[ 47 183 363 242  62  46  49  49]
1679714574.310529,[ 65 179 307 239  61  47  44  60]
1679714574.333988,[ 69 161 258 219  56  45  43  64]
1679714574.349546,[ 69 180 282 232  72  44  45  64]
1679714574.370446,[ 83 166 333 368  88  45  48  69]
1679714574.39305,[ 83 145 374 357  83  38  49  70]
1679714574.4237,[ 66 136 373 351  82  35  47  58]
1679714574.446449,[ 69 136 377 359  84  42  66  65]
1679714574.455143,[ 78 155 380 389  80  44  65  70]
1679714574.492827,[ 75 150 370 339  88  47  65  66]
1679714574.494486,[ 72 144 307 382 102  49  64  65]
1679714574.514584,[ 82 145 306 385 108  61  78  77]
1679714574.536914,[105 150 305 384 107  72 108 105]
1679714574.558122,[110 105 268 343 102  97 124 129]
1679714574.573427,[106  92 251 311  83  97 123 130]
1679714574.589458,[109 140 325 373 110 100 124 132]
1679714574.619494,[103 146 351 451 116  96 118 125]
1679714574.634409,[ 74 143 351 466 116  84  78  97]
1679714574.648217,[ 58 141 350 464 113  51  49  58]
1679714574.679879,[ 49 133 329 440 111  44  46  50]
1679714574.693308,[ 39  91 274 339  69  36  45  43]
1679714574.710721,[ 37  86 258 252  47  27  39  43]
1679714574.746619,[ 33  90 317 230  51  29  38  36]
1679714574.753179,[ 32  93 321 232  52  34  43  31]
1679714574.770942,[ 34  86 301 216  51  40  49  35]
1679714574.791823,[ 43 126 354 208  54  44  50  39]
1679714574.813049,[ 43 152 370 184  56  43  51  39]
1679714574.829475,[ 45 150 331 174  52  42  53  43]
1679714574.851076,[ 41 149 325 168  53  38  41  40]
1679714574.872941,[ 41 151 308 169  51  35  42  41]
1679714574.889509,[ 36 112 209 173  40  32  46  44]
1679714574.910376,[ 40  75 162 248  67  39  63  47]
1679714574.932948,[ 38  97 212 285  73  42  71  44]
1679714574.971971,[ 40 104 256 316  76  42  75  46]
1679714574.978662,[ 47 140 369 463 101  42  74  46]
1679714574.993401,[ 65 146 393 524 126  44  73  48]
1679714575.015665,[ 99 141 394 524 122  50  67  64]
1679714575.05435,[123 130 362 505 119  69  78 113]
1679714575.061014,[128 124 336 498 119  89 121 129]
1679714575.085393,[129  78 209 381 103 102 134 132]
1679714575.090735,[137  66 145 279  76 127 209 157]
1679714575.113173,[120  64 111 216  60 126 221 158]
1679714575.135388,[102  83 236 268  72 120 221 135]
1679714575.150416,[ 99 109 514 361  86 110 203 125]
1679714575.180492,[ 97 130 530 353  90 101 196 122]
1679714575.195991,[ 73 135 593 461 103  74 120  90]
1679714575.280284,[ 74 160 690 597 145  72 105  93]
1679714575.384158,[ 89 158 804 632 153  85 142 105]
