1679714214.670063,[ 32 117 336 271  62  28  24  33]
1679714214.691017,[ 28 113 327 260  61  26  24  32]
1679714214.705958,[ 30 110 322 265  58  26  23  32]
1679714214.736714,[ 29  96 310 352  69  30  27  33]
1679714214.751006,[ 30  93 291 337  66  31  26  31]
1679714214.76592,[ 28  82 297 360  69  31  28  32]
1679714214.788483,[ 31  81 297 352  67  32  31  34]
1679714214.812614,[ 30  72 287 347  69  32  31  33]
1679714214.827509,[ 29  72 254 319  59  29  30  32]
1679714214.848753,[ 28  68 246 313  56  30  30  32]
1679714214.871007,[ 30  69 243 286  53  30  31  32]
1679714214.885889,[ 27  71 241 315  63  30  29  31]
1679714214.910037,[ 31 102 269 317  68  32  32  31]
1679714214.932566,[ 32 105 327 264  65  30  31  29]
1679714214.947399,[ 31 100 314 257  66  33  33  29]
1679714214.968738,[ 28 101 309 280  70  32  31  26]
1679714215.006552,[ 31 124 322 273  74  34  31  27]
1679714215.014927,[ 28 116 356 294  84  36  33  32]
1679714215.029889,[ 29 115 287 281  81  34  35  34]
1679714215.051019,[ 30 120 306 285  83  32  34  34]
1679714215.066036,[ 32 128 313 296  81  32  34  35]
1679714215.096952,[ 31 109 311 292  78  29  34  33]
1679714215.134841,[ 31  96 292 260  59  25  30  29]
1679714215.136539,[ 26 105 323 262  56  27  27  25]
1679714215.148437,[ 26 111 336 266  51  27  25  25]
1679714215.170948,[ 27 108 324 226  49  29  26  25]
1679714215.19492,[ 27 104 326 207  37  28  29  29]
1679714215.208444,[ 27 109 300 221  43  27  28  28]
1679714215.238935,[ 32 105 261 240  46  26  27  30]
1679714215.247417,[ 34  97 230 294  49  24  28  30]
1679714215.276863,[ 32  88 255 324  60  28  31  30]
1679714215.291694,[ 37 109 341 363  65  29  29  28]
1679714215.306226,[ 38 121 338 361  62  29  29  28]
1679714215.33001,[ 35 114 340 343  59  29  30  27]
1679714215.374625,[ 33 113 334 285  58  30  28  29]
1679714215.381656,[ 36 118 429 259  48  24  26  30]
1679714215.388942,[ 29 104 433 252  47  36  31  30]
1679714215.419173,[ 37  89 435 245  50  54  81  52]
1679714215.449946,[ 42  87 444 260  52  69 105  61]
1679714215.456638,[ 43 114 487 316  63  80 115  62]
1679714215.480162,[ 43 110 437 332  66  84 119  64]
1679714215.485911,[ 44 107 368 292  61  81 121  64]
1679714215.508462,[ 37 102 400 325  61  71  96  49]
1679714215.532456,[ 34 105 484 324  65  56  72  41]
1679714215.55348,[ 38  84 450 350  71  42  55  38]
1679714215.56841,[ 34  82 412 372  69  36  47  35]
1679714215.590961,[ 37  96 447 386  79  36  43  34]
1679714215.621652,[ 35 108 466 402  86  49  61  40]
1679714215.636135,[ 36 103 401 407  83  55  63  39]
1679714215.660614,[ 37 104 402 370  72  54  65  40]
1679714215.674973,[ 37 110 467 340  74  53  64  41]
1679714215.68847,[ 37 108 483 341  72  52  65  42]
1679714215.712437,[ 38  99 425 291  61  39  45  35]
1679714215.73347,[ 36  98 391 294  60  31  36  30]
1679714215.765637,[ 32  96 434 268  60  30  35  29]
1679714215.77132,[ 34  94 381 272  58  33  36  31]
1679714215.809863,[ 32  90 318 293  53  29  32  30]
1679714215.815965,[ 34  97 324 287  52  30  35  33]
1679714215.832938,[ 33  96 360 274  49  35  35  34]
1679714215.854415,[ 35  96 363 341  52  39  37  36]
1679714215.869234,[ 34  97 399 353  52  39  36  34]
1679714215.890975,[ 32  91 380 344  47  39  35  34]
1679714215.921664,[ 32  81 435 405  56  39  33  32]
1679714215.936121,[ 33  85 415 400  56  43  34  33]
1679714215.950949,[ 28  87 370 344  52  40  30  28]
1679714215.973442,[ 25  79 300 359  49  40  29  26]
1679714215.989932,[ 29  85 377 340  50  40  32  26]
1679714216.010965,[ 25  94 402 282  47  39  30  25]
1679714216.057347,[ 26  94 407 300  49  30  28  22]
1679714216.058887,[ 29  86 395 291  45  27  29  26]
1679714216.072633,[ 28  83 468 256  45  25  30  27]
1679714216.093925,[ 27  90 426 356  58  26  29  28]
1679714216.124239,[ 28  92 433 361  54  26  30  29]
1679714216.130963,[ 25  88 446 359  55  25  30  32]
1679714216.153502,[ 25  87 458 380  61  27  31  30]
1679714216.176213,[ 27  88 424 386  62  30  27  29]
1679714216.191219,[ 27  77 443 321  48  28  28  29]
1679714216.213539,[ 28  59 373 319  49  29  28  27]
1679714216.244273,[ 28  63 410 316  51  29  27  24]
1679714216.25105,[ 26  68 413 319  52  29  24  23]
1679714216.273778,[ 24  71 445 329  63  26  25  24]
1679714216.296252,[ 27  74 452 326  69  28  25  26]
1679714216.320759,[ 25  76 442 328  67  25  22  28]
1679714216.333489,[ 25  75 379 343  69  24  21  28]
1679714216.356127,[ 26  71 366 316  64  34  23  29]
1679714216.37259,[ 28  70 271 289  53  41  30  30]
1679714216.393443,[ 52  57 327 250  44  40  33  31]
1679714216.408934,[ 92  65 333 257  46  45  38  51]
1679714216.43868,[ 96  64 357 242  52  48  39  52]
1679714216.453664,[ 97  76 384 292  54  42  39  52]
1679714216.485885,[ 98  89 531 315  57  38  36  53]
1679714216.49124,[ 89  92 472 325  65  38  32  52]
1679714216.521713,[ 52  92 500 328  66  34  30  35]
1679714216.52855,[ 44  89 488 320  59  29  30  35]
1679714216.558461,[ 42  90 500 280  56  28  30  35]
1679714216.574922,[ 39  83 425 269  55  27  28  33]
1679714216.596095,[ 33  84 449 284  52  28  30  32]
1679714216.611002,[ 26  78 412 269  48  25  27  27]
1679714216.633489,[ 22  82 409 287  46  26  28  28]
1679714216.664566,[ 22  69 367 307  48  28  27  26]
1679714216.679174,[ 23  74 347 311  48  26  27  27]
1679714216.693814,[ 22  82 322 313  47  25  26  24]
1679714216.716054,[ 24  80 335 300  49  25  28  26]
1679714216.732699,[ 26  84 380 307  56  25  26  24]
1679714216.75486,[ 26  93 415 348  64  27  25  24]
1679714216.784139,[ 28  89 366 334  64  28  24  22]
1679714216.790984,[ 28  83 386 310  59  28  24  24]
1679714216.837679,[ 26  92 403 360  68  28  25  23]
1679714216.839052,[ 28 108 392 334  64  30  27  23]
1679714216.852433,[ 31 104 417 290  63  27  28  23]
1679714216.873405,[ 30 103 405 304  64  25  30  26]
1679714216.896218,[ 32 100 366 315  64  25  30  26]
1679714216.912504,[ 33  97 331 260  53  26  30  31]
1679714216.935286,[ 35  80 401 331  63  25  30  32]
1679714216.956069,[ 32  88 375 354  61  25  29  34]
1679714216.986751,[ 33 101 379 344  71  29  31  36]
1679714216.993413,[ 31 104 382 342  74  29  30  37]
1679714217.03982,[ 30 105 400 353  73  28  29  33]
1679714217.041346,[ 26 110 333 300  67  27  26  31]
1679714217.062036,[ 27 105 307 256  59  26  28  30]
1679714217.075904,[ 24  98 366 288  59  29  29  33]
1679714217.091028,[ 27 102 380 315  66  29  30  32]
1679714217.114953,[ 28 107 434 307  66  30  28  31]
1679714217.136053,[ 29 108 418 312  68  33  31  35]
1679714217.150942,[ 31 106 401 327  75  36  33  36]
1679714217.189163,[ 30 105 354 307  67  30  32  33]
1679714217.196017,[ 29 100 402 314  67  35  34  35]
1679714217.226725,[ 29  94 439 322  71  35  35  35]
1679714217.233376,[ 28  80 445 299  64  46  42  34]
1679714217.256024,[ 26  77 446 325  69  45  42  34]
1679714217.272686,[ 29  70 500 342  68  46  43  35]
1679714217.297466,[ 28  67 460 322  65  45  41  33]
1679714217.315963,[ 40  63 373 305  61  44  45  44]
1679714217.338551,[ 40  64 367 315  62  33  37  44]
1679714217.362276,[ 40  69 400 287  54  33  35  41]
1679714217.391403,[ 40  74 379 266  53  31  29  39]
1679714217.408123,[ 41  73 375 256  49  28  31  40]
1679714217.413352,[ 32  80 365 305  57  42  41  31]
1679714217.435994,[ 30  87 455 314  60  44  45  30]
1679714217.466475,[ 30  81 451 289  58  46  46  30]
1679714217.474852,[ 31  93 418 320  66  50  47  31]
1679714217.50059,[ 30 110 418 312  65  51  50  30]
1679714217.527018,[ 28 111 493 309  58  40  37  28]
1679714217.556423,[ 27 108 415 318  61  37  33  28]
1679714217.565783,[ 28 111 405 335  62  33  34  28]
1679714217.594685,[ 26 102 389 302  52  29  35  27]
1679714217.600919,[ 26  83 386 299  48  26  31  27]
1679714217.615905,[ 26  68 268 248  48  26  31  25]
1679714217.656099,[ 27  70 265 274  51  24  30  25]
1679714217.65762,[ 27  66 322 260  51  28  27  25]
1679714217.675966,[ 28  63 326 287  51  28  28  26]
1679714217.706796,[ 27  59 348 302  59  28  26  27]
1679714217.713393,[ 28  80 408 334  62  29  26  28]
1679714217.751448,[ 27  74 390 320  53  29  27  30]
1679714217.760012,[ 27  76 348 332  51  29  28  31]
1679714217.774853,[ 24  70 357 303  53  28  25  29]
1679714217.811432,[ 25  81 453 286  47  27  26  28]
1679714217.82054,[ 27  87 406 258  48  27  25  28]
1679714217.833424,[ 27  85 407 250  53  25  26  25]
1679714217.864249,[ 25  83 429 235  56  23  26  24]
1679714217.878419,[ 27  82 451 218  56  26  30  24]
1679714217.893612,[ 26  82 387 231  56  27  32  24]
1679714217.916053,[ 23  58 426 299  55  28  32  25]
1679714217.946699,[ 24  60 420 316  56  27  31  25]
1679714217.96101,[ 28  63 409 352  64  28  31  27]
1679714217.985624,[ 30 118 514 402  75  31  27  28]
1679714217.998377,[ 31 117 505 414  76  32  26  28]
1679714218.014916,[ 31 116 461 379  77  32  27  28]
1679714218.035964,[ 32 115 512 345  74  32  28  30]
1679714218.058562,[ 28 119 512 347  68  34  28  27]
1679714218.081374,[ 29  77 410 310  52  28  28  26]
1679714218.096027,[ 28  75 418 289  56  32  30  26]
1679714218.119978,[ 28  75 422 299  53  31  30  26]
1679714218.150712,[ 25  83 440 302  54  31  31  25]
1679714218.164198,[ 24  76 415 250  47  29  30  25]
1679714218.18674,[ 23  67 393 262  49  29  33  27]
1679714218.193436,[ 22  69 353 271  44  26  31  29]
1679714218.224134,[ 25  82 448 342  57  28  29  29]
1679714218.238549,[ 28  88 427 365  70  35  30  29]
1679714218.261156,[ 31  97 511 384  76  36  31  29]
1679714218.275994,[ 31  93 504 367  74  36  30  28]
1679714218.314893,[ 30  99 561 432  87  37  31  28]
1679714218.316459,[ 31 100 559 431  93  38  33  29]
1679714218.337532,[ 30  90 527 415  82  34  31  28]
1679714218.358473,[ 28  79 456 416  82  34  33  30]
1679714218.38249,[ 26  94 496 444  86  36  32  30]
1679714218.396187,[ 28  86 466 383  73  36  35  31]
1679714218.420017,[ 25  73 403 363  61  36  37  31]
1679714218.433523,[ 29  98 464 391  64  36  36  32]
1679714218.456134,[ 28  97 462 378  66  34  36  31]
1679714218.479953,[ 30  87 423 339  63  33  37  31]
1679714218.501194,[ 31  90 426 326  65  34  37  29]
1679714218.526924,[ 31 105 459 323  62  31  34  28]
1679714218.546695,[ 27  85 442 283  61  31  36  26]
1679714218.577369,[ 29  97 469 303  54  30  35  25]
1679714218.578919,[ 29 110 499 341  60  31  34  27]
1679714218.60671,[ 29 113 480 366  77  32  31  27]
1679714218.621363,[ 29 100 433 322  80  33  35  27]
1679714218.635922,[ 29 110 428 354  82  34  34  28]
1679714218.660056,[ 32 103 397 399  84  35  35  32]
1679714218.696472,[ 30 102 386 407  82  36  32  29]
1679714218.713231,[ 32 107 375 385  68  33  34  30]
1679714218.727358,[ 33 113 432 406  61  33  31  29]
1679714218.749312,[ 34 104 391 393  59  31  31  29]
1679714218.756018,[ 31 106 463 388  63  32  30  27]
1679714218.78014,[ 31  97 487 355  60  31  31  29]
1679714218.817239,[ 29  85 485 369  56  30  31  28]
1679714218.823551,[ 26  85 480 374  65  32  32  28]
1679714218.838523,[ 24  82 476 347  61  30  32  30]
1679714218.861058,[ 26  76 403 307  57  29  30  29]
1679714218.876115,[ 26  78 409 305  57  26  30  28]
1679714218.898573,[ 25  80 389 306  57  26  28  30]
1679714218.921074,[ 25  81 370 259  47  23  23  30]
1679714218.938936,[ 29  80 478 314  54  27  27  32]
1679714218.95995,[ 28  80 479 285  50  26  27  31]
1679714218.988405,[ 28  72 451 389  61  29  29  34]
1679714219.003563,[ 28  66 504 386  63  31  31  31]
1679714219.020076,[ 31  79 504 388  64  32  33  31]
1679714219.042413,[ 27  77 417 398  59  28  30  28]
1679714219.063995,[ 27  81 440 422  61  34  32  30]
1679714219.095675,[ 34  83 427 331  48  37  38  34]
1679714219.101026,[ 34  95 402 328  57  42  38  35]
1679714219.125492,[ 35  73 438 344  55  44  43  37]
1679714219.140216,[ 36  82 464 296  54  46  45  38]
1679714219.162456,[ 35  85 493 296  57  44  43  35]
1679714219.183478,[ 34  82 473 295  57  42  38  32]
1679714219.215601,[ 33  85 477 302  58  37  38  31]
1679714219.228581,[ 29  89 449 405  72  34  30  28]
1679714219.250945,[ 30  83 426 427  79  35  29  28]
1679714219.260565,[ 31 110 487 434  82  35  30  29]
1679714219.29786,[ 29 128 561 483  86  34  27  26]
1679714219.312451,[ 29 124 559 468  78  32  28  27]
1679714219.349867,[ 31 134 581 423  72  33  30  28]
1679714219.351334,[ 31 133 666 552  76  33  30  30]
1679714219.370966,[ 32 114 651 528  71  30  31  31]
1679714219.394152,[ 29 103 599 502  74  32  32  30]
1679714219.400876,[ 30 110 619 542  79  32  33  31]
1679714219.423589,[ 29  99 583 503  74  30  33  33]
1679714219.439886,[ 31 105 490 335  63  30  31  32]
1679714219.461387,[ 28 106 402 391  75  31  32  32]
1679714219.499577,[ 28  99 412 377  76  31  34  34]
1679714219.505955,[ 28  87 437 350  77  32  31  31]
1679714219.536571,[ 28  89 422 406  83  31  30  30]
1679714219.545135,[ 27  94 490 412  88  32  29  29]
1679714219.559942,[ 27  94 534 351  77  32  27  27]
1679714219.581163,[ 30  93 516 350  66  29  24  27]
1679714219.610996,[ 30  90 546 326  61  27  26  28]
1679714219.627405,[ 29  87 559 273  55  26  26  28]
1679714219.680268,[ 29  80 496 344  59  26  32  28]
1679714219.681767,[ 30  68 482 357  66  25  36  30]
1679714219.694875,[ 28  71 531 365  73  27  36  34]
1679714219.716724,[ 28  70 441 373  75  27  36  34]
1679714219.730949,[ 29  70 437 407  76  29  38  37]
1679714219.740234,[ 29  73 510 348  65  26  34  37]
1679714219.7701,[ 27  84 546 373  76  28  28  37]
1679714219.784953,[ 26  83 521 351  70  27  27  33]
1679714219.814906,[ 27  89 616 349  67  27  25  35]
1679714219.822402,[ 27  95 680 333  73  27  23  32]
1679714219.843455,[ 26  88 613 345  73  27  24  34]
1679714219.860053,[ 25  81 548 327  60  29  29  33]
1679714219.882426,[ 28  96 597 412  78  34  30  32]
1679714219.904954,[ 26  99 494 403  77  34  31  30]
1679714219.927766,[ 28  94 377 364  71  34  33  31]
1679714219.942507,[ 27  97 408 382  75  35  35  32]
1679714219.963861,[ 28 108 583 459  90  34  33  34]
1679714219.986134,[ 26 107 564 413  78  28  32  34]
1679714220.008567,[ 26 109 615 430  80  29  33  33]
1679714220.025097,[ 21 107 622 441  81  29  33  31]
1679714220.047404,[ 24 104 625 427  81  30  30  30]
1679714220.063009,[ 22  92 467 326  59  28  30  27]
1679714220.092597,[ 21  78 408 366  66  27  30  26]
1679714220.1134,[ 22  78 362 348  69  28  30  28]
1679714220.128595,[ 23  77 351 344  67  27  26  28]
1679714220.143492,[ 21  80 322 425  81  29  29  29]
1679714220.170134,[ 25  81 339 440  84  28  28  28]
1679714220.182567,[ 28  80 354 379  82  28  26  27]
1679714220.210948,[ 36  74 329 406  79  29  28  27]
1679714220.226172,[ 37  79 425 415  83  28  30  28]
1679714220.249966,[ 36  79 477 296  70  27  28  28]
1679714220.263486,[ 36  76 524 358  81  31  31  34]
1679714220.287712,[ 35  74 554 365  75  32  33  36]
1679714220.302516,[ 29  64 542 359  75  32  31  38]
1679714220.323468,[ 28  63 513 399  75  34  33  37]
1679714220.353598,[ 31  59 492 427  71  33  32  35]
1679714220.376767,[ 28  60 438 367  57  33  29  30]
1679714220.383569,[ 31  74 455 503  68  31  33  31]
1679714220.413683,[ 30  78 555 516  80  30  33  27]
1679714220.422469,[ 31  78 595 472  76  28  30  29]
1679714220.44501,[ 33  82 576 509  76  26  32  30]
1679714220.483737,[ 33  98 659 525  76  25  32  31]
1679714220.485353,[ 31  92 629 388  64  26  28  32]
1679714220.511008,[ 32  91 585 361  50  27  27  33]
1679714220.525941,[ 29  89 531 406  59  29  28  31]
1679714220.564827,[ 27  85 549 334  58  31  28  33]
1679714220.566368,[ 27  73 467 299  55  30  27  30]
1679714220.586091,[ 25  76 594 399  83  32  26  27]
1679714220.602418,[ 26  80 545 438  89  31  27  29]
1679714220.62349,[ 27  81 532 394  89  31  26  29]
1679714220.647444,[ 27  83 548 420  91  31  24  29]
1679714220.66255,[ 28  78 527 428  98  34  29  31]
1679714220.684922,[ 29  87 404 354  83  31  30  32]
1679714220.706002,[ 27  96 492 339  75  30  30  30]
1679714220.722496,[ 25  97 519 365  76  30  30  32]
1679714220.743534,[ 27  97 492 325  71  31  31  32]
1679714220.773459,[ 24 105 525 370  66  27  29  31]
1679714220.782461,[ 22  98 533 376  65  29  27  30]
1679714220.803589,[ 25  83 462 328  61  27  27  30]
1679714220.827457,[ 30  82 462 365  58  27  33  31]
1679714220.842422,[ 27  92 485 394  67  24  32  30]
1679714220.863639,[ 29  83 518 395  72  27  32  30]
1679714220.893512,[ 31  77 519 403  75  30  34  33]
1679714220.902517,[ 27  97 608 411  75  30  33  33]
1679714220.931011,[ 26  98 589 381  70  29  30  31]
1679714220.947447,[ 27  85 572 353  63  31  30  30]
1679714220.962513,[ 25  81 517 305  60  31  32  30]
1679714220.985315,[ 27  90 527 378  61  29  32  28]
1679714221.006597,[ 30  78 509 433  76  31  34  29]
1679714221.036435,[ 29  78 513 415  78  31  31  27]
1679714221.052638,[ 31  83 500 456  84  29  31  28]
1679714221.066704,[ 30  91 554 454  81  29  29  25]
1679714221.090751,[ 29  88 605 369  71  28  30  27]
1679714221.103442,[ 27  92 529 348  66  27  30  25]
1679714221.133649,[ 25  89 583 412  75  29  30  25]
1679714221.142449,[ 24  99 631 390  73  27  29  25]
1679714221.163424,[ 26  95 584 417  77  29  31  29]
1679714221.188186,[ 27  92 468 420  79  28  27  31]
1679714221.202501,[ 28  86 550 386  69  27  29  33]
1679714221.231015,[ 29  92 553 364  66  26  29  34]
1679714221.246118,[ 29  90 512 372  71  29  28  35]
1679714221.262628,[ 29  87 552 332  66  28  27  34]
1679714221.28346,[ 29  93 614 339  66  28  27  32]
1679714221.306009,[ 30  90 593 401  73  29  23  30]
1679714221.336387,[ 31  84 569 392  73  31  23  30]
1679714221.345023,[ 29  70 542 363  63  29  25  28]
1679714221.373571,[ 29  68 511 373  65  30  29  26]
1679714221.389952,[ 26  68 514 386  65  30  28  27]
1679714221.405069,[ 27  70 506 336  65  29  29  26]
1679714221.433604,[ 26  69 448 303  58  25  31  29]
1679714221.448509,[ 27  74 442 311  64  27  31  30]
1679714221.472449,[ 30  80 516 327  63  25  26  28]
1679714221.517048,[ 29  81 505 300  65  27  26  29]
1679714221.524925,[ 27  79 486 291  59  27  29  31]
1679714221.526585,[ 27  79 522 360  61  32  27  29]
1679714221.54605,[ 28  83 612 356  58  30  28  32]
1679714221.56916,[ 24  87 555 354  65  30  28  32]
1679714221.592883,[ 28  84 571 375  70  32  31  32]
1679714221.605918,[ 28  80 535 365  69  31  29  31]
1679714221.635976,[ 31  79 536 289  72  28  29  31]
1679714221.644919,[ 30  94 558 277  69  28  28  33]
1679714221.673492,[ 30  90 554 252  63  31  30  36]
1679714221.696658,[ 28  94 485 259  55  26  31  35]
1679714221.703372,[ 28 101 496 293  60  25  31  35]
1679714221.727451,[ 24 106 560 295  51  24  33  36]
1679714221.748554,[ 21  89 500 348  58  26  32  32]
1679714221.763496,[ 27  85 491 405  75  27  36  37]
1679714221.786081,[ 31  73 504 405  80  27  34  36]
1679714221.809943,[ 31  66 527 418  80  28  33  36]
1679714221.823832,[ 32  65 476 424  81  29  35  39]
1679714221.855215,[ 35  67 451 398  81  29  35  40]
1679714221.869872,[ 33  65 456 343  67  25  31  36]
1679714221.883527,[ 31  67 510 369  68  26  28  37]
1679714221.905925,[ 30  64 511 335  71  26  29  37]
1679714221.928449,[ 28  54 473 330  70  25  23  31]
1679714221.945553,[ 26  46 483 331  64  27  30  33]
1679714221.990354,[ 26  88 618 346  74  32  30  30]
1679714221.991543,[ 27  89 567 316  75  33  29  30]
1679714222.004973,[ 29  97 617 331  70  34  30  32]
1679714222.026016,[ 29  98 629 340  69  35  31  31]
1679714222.048572,[ 30 104 620 317  69  33  26  28]
1679714222.071328,[ 30  83 502 313  55  29  25  31]
1679714222.085988,[ 27  80 490 287  41  27  23  28]
1679714222.110137,[ 26  71 417 260  43  25  24  30]
1679714222.125083,[ 26  80 424 235  46  25  25  30]
1679714222.161714,[ 27  75 393 246  42  25  24  29]
1679714222.192416,[ 26  64 467 262  46  25  27  26]
1679714222.193928,[ 27  66 510 279  55  24  29  26]
1679714222.206513,[ 28  85 639 363  72  29  30  24]
1679714222.230002,[ 30  82 691 418  83  31  29  23]
1679714222.268928,[ 33  87 684 421  83  32  31  25]
1679714222.270433,[ 33 102 624 410  84  34  31  29]
1679714222.296474,[ 32 108 677 425  90  37  31  30]
1679714222.320588,[ 30  97 553 358  78  36  30  31]
1679714222.333735,[ 30  95 450 290  66  34  31  32]
1679714222.348497,[ 26  89 482 414  89  35  29  32]
1679714222.379086,[ 27  89 607 477  98  33  31  34]
1679714222.387424,[ 27  80 531 465 103  32  30  35]
1679714222.424431,[ 28  77 566 500 107  32  31  36]
1679714222.439143,[ 25  76 558 539 107  30  30  36]
1679714222.461932,[ 28  77 582 441  89  29  30  35]
1679714222.46842,[ 26  64 503 366  77  28  27  35]
1679714222.491016,[ 25  83 546 348  62  27  28  35]
1679714222.507455,[ 25  86 545 301  55  28  27  33]
1679714222.52869,[ 26  86 560 253  63  30  27  33]
1679714222.582863,[ 26  83 556 262  63  30  30  35]
1679714222.5844,[ 26 108 543 299  69  35  29  31]
1679714222.589959,[ 27 103 479 315  67  34  27  31]
1679714222.61111,[ 29 107 426 307  65  33  29  33]
1679714222.626711,[ 29 107 465 282  56  31  31  33]
1679714222.665656,[ 26 106 447 276  54  30  27  30]
1679714222.671011,[ 26  75 450 297  50  27  29  30]
1679714222.686105,[ 26  67 471 288  47  28  31  28]
1679714222.70855,[ 23  56 493 298  48  25  29  28]
1679714222.739261,[ 23  58 454 331  56  28  31  32]
1679714222.746059,[ 23  73 452 351  56  28  32  33]
1679714222.784454,[ 23  72 392 286  51  27  30  32]
1679714222.799174,[ 25  67 356 266  47  26  29  34]
1679714222.805953,[ 25  65 317 305  46  26  28  30]
1679714222.836048,[ 26  74 333 372  47  28  25  26]
1679714222.859256,[ 28  76 431 353  46  30  29  29]
1679714222.86606,[ 28  74 453 369  48  27  28  28]
1679714222.888606,[ 27  83 508 374  50  29  28  27]
1679714222.911254,[ 28  84 517 352  49  30  27  28]
1679714222.927503,[ 28  75 502 256  39  26  26  28]
1679714222.948465,[ 27  56 381 271  40  24  22  25]
1679714222.972538,[ 31  61 408 262  33  28  26  28]
1679714222.993462,[ 37  54 327 286  39  28  28  33]
1679714223.024343,[ 36  54 293 261  37  25  28  33]
1679714223.031246,[ 36  54 271 244  35  25  30  35]
1679714223.047393,[ 37  62 267 248  33  25  30  35]
1679714223.084171,[ 34  70 262 289  46  24  28  33]
1679714223.090902,[ 30  70 322 318  51  23  29  32]
1679714223.128973,[ 29  72 329 363  61  26  29  33]
1679714223.13742,[ 30  74 336 379  68  31  27  32]
1679714223.150866,[ 30  71 349 361  69  29  30  32]
1679714223.183066,[ 30  61 373 340  65  29  29  32]
1679714223.188413,[ 28  67 335 338  68  29  25  28]
1679714223.211049,[ 29  72 331 307  61  28  26  28]
1679714223.233476,[ 27  83 394 294  57  26  25  27]
1679714223.256516,[ 27  89 423 311  56  26  23  26]
1679714223.270983,[ 22  89 356 314  54  27  23  28]
1679714223.293745,[ 25  82 354 296  52  27  26  30]
1679714223.308403,[ 25  76 408 294  52  26  26  32]
1679714223.339894,[ 24  67 351 284  49  25  27  31]
1679714223.353565,[ 25  59 296 302  52  25  26  32]
1679714223.375977,[ 29  71 306 287  55  23  27  30]
1679714223.39102,[ 27  88 388 285  53  23  28  29]
1679714223.418749,[ 26  88 337 302  59  25  26  23]
1679714223.428471,[ 29  87 343 347  65  25  27  26]
1679714223.458606,[ 28  89 400 325  63  25  27  24]
1679714223.473456,[ 26  91 449 311  60  26  26  26]
1679714223.49605,[ 29  95 394 319  56  26  26  33]
1679714223.512693,[ 31 119 411 320  56  25  26  36]
1679714223.541405,[ 29 122 456 322  55  26  25  34]
1679714223.549902,[ 31 129 475 327  56  27  27  35]
1679714223.570958,[ 30 124 434 363  55  28  27  35]
1679714223.593424,[ 27 124 476 421  65  26  24  28]
1679714223.617457,[ 25 110 474 421  71  27  27  29]
1679714223.633171,[ 26 109 426 399  67  25  29  32]
1679714223.654999,[ 25 106 445 411  69  25  30  33]
1679714223.668565,[ 26 105 478 397  68  25  29  32]
1679714223.691001,[ 29  87 425 284  56  27  31  33]
1679714223.714904,[ 29  82 432 276  46  25  32  31]
1679714223.728468,[ 30  83 480 343  51  27  30  30]
1679714223.750923,[ 29  75 406 333  52  26  26  28]
1679714223.773638,[ 32  74 350 317  51  27  31  30]
1679714223.788518,[ 28  76 337 321  52  26  30  30]
1679714223.811291,[ 26  65 298 293  46  28  30  30]
1679714223.841561,[ 23  57 191 184  38  27  30  28]
1679714223.849997,[ 24  50 151 147  32  26  31  30]
1679714223.870977,[ 22  44 101 123  31  25  30  30]
1679714223.895046,[ 23  47 131 124  31  26  31  28]
1679714223.908496,[ 25  68 340 312  59  29  29  28]
1679714223.932542,[ 26  72 409 366  67  29  29  27]
1679714223.953425,[ 28  73 420 415  73  32  31  27]
1679714223.976021,[ 26  73 429 442  74  33  27  26]
1679714223.998649,[ 29  83 495 450  76  33  28  27]
1679714224.023147,[ 29  75 405 395  59  30  30  29]
1679714224.028727,[ 29  74 354 354  53  30  32  30]
1679714224.052586,[ 26  75 347 360  54  29  31  29]
1679714224.07495,[ 27  76 343 342  56  28  32  29]
1679714224.104182,[ 24  61 309 343  53  28  31  29]
1679714224.110893,[ 20  56 285 285  57  28  28  25]
1679714224.134967,[ 22  63 323 280  56  27  26  25]
1679714224.156063,[ 23  77 370 212  46  25  25  24]
1679714224.170958,[ 25  76 372 231  48  29  26  25]
1679714224.209132,[ 26  84 371 312  57  31  27  26]
1679714224.22418,[ 26  91 429 318  56  29  27  28]
1679714224.23103,[ 28 108 404 347  55  32  27  28]
1679714224.263163,[ 27 100 384 345  56  31  25  25]
1679714224.27599,[ 26 104 435 358  53  30  26  25]
1679714224.290933,[ 26 104 411 273  41  27  24  25]
1679714224.329158,[ 29 102 393 279  36  28  27  25]
1679714224.33603,[ 25  81 439 307  55  30  25  25]
1679714224.35856,[ 25  78 424 318  60  30  27  26]
1679714224.373435,[ 28  74 379 294  60  29  24  27]
1679714224.404289,[ 28  65 355 320  61  28  26  28]
1679714224.411174,[ 28  76 358 323  71  33  25  27]
1679714224.435024,[ 28  72 285 308  65  28  25  27]
1679714224.456017,[ 28  74 275 285  62  28  26  29]
1679714224.5032,[ 26  69 285 317  63  28  27  30]
1679714224.504393,[ 27  73 344 315  65  30  25  28]
1679714224.517499,[ 25  80 394 337  74  26  22  29]
1679714224.531108,[ 25  79 394 315  67  26  23  27]
1679714224.553424,[ 26  81 396 329  69  29  30  30]
1679714224.576118,[ 24  83 429 319  72  30  31  28]
1679714224.591045,[ 23  82 417 309  71  29  33  30]
1679714224.613449,[ 23  57 372 276  48  30  35  31]
1679714224.644286,[ 23  63 407 294  58  31  36  33]
1679714224.651499,[ 25  82 417 298  60  31  30  29]
1679714224.675576,[ 26  85 368 271  55  30  33  29]
1679714224.696324,[ 25 100 394 273  55  30  33  28]
1679714224.729298,[ 28 106 409 284  57  31  31  24]
1679714224.733555,[ 29 104 380 234  47  32  32  22]
1679714224.764343,[ 27  86 367 211  43  29  32  24]
1679714224.770933,[ 28  85 430 246  51  32  29  28]
1679714224.801085,[ 32  71 421 288  52  34  30  30]
1679714224.815911,[ 30  66 380 272  49  32  30  31]
1679714224.850691,[ 28  65 408 288  58  31  29  32]
1679714224.853574,[ 30  70 430 378  62  34  30  31]
1679714224.884183,[ 29  67 386 366  54  30  28  27]
1679714224.891063,[ 26  63 380 320  53  31  28  28]
1679714224.922558,[ 26  57 367 363  59  30  29  29]
1679714224.938151,[ 26  55 437 453  61  31  30  28]
1679714224.958525,[ 27  56 414 397  57  30  29  32]
1679714224.973415,[ 27  67 430 389  56  32  30  32]
1679714224.996084,[ 30  87 463 403  58  30  31  33]
1679714225.010925,[ 28  87 459 394  52  29  30  33]
1679714225.033415,[ 30  88 382 286  41  27  27  31]
1679714225.056313,[ 29  83 377 286  40  25  29  32]
1679714225.070955,[ 28  83 383 301  45  25  31  32]
1679714225.094886,[ 24  58 281 306  42  24  29  28]
1679714225.124193,[ 25  55 268 319  49  25  29  27]
1679714225.138545,[ 25  57 224 331  46  28  30  30]
1679714225.162403,[ 22  61 376 332  47  27  28  24]
1679714225.184344,[ 23  66 405 312  43  28  24  26]
1679714225.198948,[ 25  72 418 311  47  28  25  28]
1679714225.213546,[ 27  72 448 266  40  28  23  26]
1679714225.235991,[ 26  70 453 247  42  25  24  25]
1679714225.266588,[ 28  69 363 262  41  25  24  27]
1679714225.275056,[ 28  57 409 277  42  23  25  28]
1679714225.296402,[ 28  64 435 288  43  25  28  28]
1679714225.334954,[ 24  66 417 336  53  25  28  31]
1679714225.337444,[ 23  65 418 333  51  24  29  33]
1679714225.35766,[ 23  67 450 347  59  27  28  32]
1679714225.386646,[ 24  66 368 370  61  27  29  30]
1679714225.401016,[ 24  58 333 388  69  25  24  30]
1679714225.440022,[ 25  60 405 398  67  24  27  26]
1679714225.441417,[ 27  68 422 453  72  27  26  25]
1679714225.45485,[ 27  71 398 421  65  25  26  22]
1679714225.491959,[ 27  71 475 410  63  24  25  22]
1679714225.522348,[ 25  87 481 418  66  30  28  23]
1679714225.524027,[ 25  84 417 371  63  30  26  26]
1679714225.537671,[ 25  88 423 311  57  27  26  26]
1679714225.560453,[ 26  86 458 367  63  29  28  30]
1679714225.573536,[ 26  87 365 395  66  31  29  33]
1679714225.596014,[ 27  69 365 349  55  27  27  31]
1679714225.634858,[ 31  83 428 346  52  29  30  33]
1679714225.636337,[ 30  85 422 392  60  30  31  34]
1679714225.656466,[ 31  86 351 361  55  28  28  34]
1679714225.695,[ 30  85 348 305  52  28  27  31]
1679714225.696417,[ 28  82 380 298  50  26  28  31]
1679714225.716009,[ 24  77 354 382  62  27  23  28]
1679714225.738612,[ 26  62 324 323  53  26  23  27]
1679714225.75503,[ 25  57 377 299  56  25  25  25]
1679714225.79979,[ 26  54 377 355  58  25  27  26]
1679714225.80138,[ 27  55 320 390  67  27  25  27]
1679714225.815071,[ 28  78 370 320  61  25  28  27]
1679714225.835946,[ 26  82 468 317  62  27  27  25]
1679714225.858467,[ 27  85 430 318  61  28  26  26]
1679714225.875075,[ 25  83 424 281  55  27  27  28]
1679714225.896035,[ 29  83 427 242  43  27  29  30]
1679714225.91855,[ 28  86 371 236  36  28  28  29]
1679714225.933425,[ 29  84 310 266  37  27  29  31]
1679714225.957444,[ 29  86 330 317  41  25  28  30]
1679714225.986751,[ 31  95 388 331  42  28  28  33]
1679714225.993453,[ 26 102 413 371  54  27  27  30]
1679714226.016176,[ 27  77 418 367  56  26  28  30]
1679714226.038534,[ 25  82 379 351  55  25  28  28]
1679714226.05347,[ 26  76 390 334  53  25  29  29]
1679714226.077545,[ 27  69 326 323  59  24  27  26]
1679714226.100323,[ 29  56 309 281  49  25  28  28]
1679714226.12311,[ 29  51 262 277  47  27  28  31]
1679714226.143831,[ 31  38 242 270  45  28  27  34]
1679714226.158362,[ 30  38 179 224  45  30  28  33]
1679714226.181031,[ 28  28 164 163  33  27  27  31]
1679714226.197389,[ 26  25 111 137  29  25  26  31]
1679714226.218409,[ 25  52 325 249  47  26  27  30]
1679714226.241051,[ 26  60 413 279  51  27  27  28]
1679714226.256003,[ 28  60 444 293  49  29  28  30]
1679714226.286663,[ 27  75 508 301  49  31  30  31]
1679714226.309201,[ 28  83 543 329  52  33  31  34]
1679714226.316118,[ 29  76 463 308  48  34  30  32]
1679714226.341772,[ 27  73 399 365  58  34  30  34]
1679714226.36143,[ 25  81 486 363  59  31  27  30]
1679714226.377437,[ 28  73 430 356  58  32  28  30]
1679714226.398652,[ 29  69 422 420  60  30  27  25]
1679714226.421136,[ 31  64 462 391  55  29  26  27]
1679714226.436077,[ 30  74 523 333  46  30  26  27]
1679714226.458685,[ 31  70 433 392  52  30  28  29]
1679714226.481035,[ 27  79 499 406  56  27  26  27]
1679714226.503573,[ 26  76 475 334  56  28  25  27]
1679714226.518498,[ 23  92 465 350  58  26  25  27]
1679714226.55019,[ 25  91 396 354  59  28  27  27]
1679714226.563564,[ 25  92 452 291  57  27  27  26]
1679714226.588355,[ 28  81 380 294  55  27  27  27]
1679714226.600973,[ 28  85 404 331  55  26  26  27]
1679714226.617514,[ 28  69 434 323  51  27  29  27]
1679714226.638427,[ 27  55 439 294  46  26  27  26]
1679714226.670633,[ 25  45 361 276  40  26  29  27]
1679714226.699997,[ 25  47 359 342  44  27  28  29]
1679714226.701363,[ 25  47 359 343  59  30  30  29]
1679714226.737447,[ 24  63 352 326  61  31  29  28]
1679714226.739288,[ 28  68 360 335  61  29  30  30]
1679714226.774736,[ 29  74 374 358  61  28  29  30]
1679714226.790646,[ 29  80 442 336  66  30  29  27]
1679714226.795877,[ 29  90 492 308  53  28  32  30]
1679714226.818499,[ 29  82 448 326  50  27  31  30]
1679714226.841405,[ 24  78 467 337  53  28  28  27]
1679714226.856027,[ 22  77 466 321  53  27  26  25]
1679714226.880005,[ 20  86 437 290  40  24  29  29]
1679714226.909407,[ 21  75 385 292  44  23  26  26]
1679714226.923499,[ 22  70 413 312  57  21  27  27]
1679714226.946913,[ 23  74 372 304  54  21  29  29]
1679714226.969368,[ 23  84 432 327  56  25  31  31]
1679714226.976045,[ 23  72 401 373  56  27  28  28]
1679714227.000074,[ 25  78 402 372  54  26  28  28]
1679714227.021032,[ 27  90 395 366  51  28  26  27]
1679714227.043483,[ 27 100 477 423  57  27  25  27]
1679714227.074314,[ 27  92 476 410  58  26  23  28]
1679714227.080977,[ 29  96 469 370  60  28  22  28]
1679714227.103708,[ 27  87 449 352  57  30  22  28]
1679714227.14383,[ 23  74 408 321  50  28  23  29]
1679714227.145398,[ 26  60 349 270  49  30  24  29]
1679714227.163562,[ 28  62 290 299  55  31  27  29]
1679714227.178558,[ 25  61 295 276  56  28  26  29]
1679714227.202401,[ 26  69 277 278  54  27  27  33]
1679714227.223698,[ 28  74 322 289  55  29  27  33]
1679714227.246058,[ 27  76 338 318  55  28  26  31]
1679714227.262468,[ 26  72 314 288  45  25  23  30]
1679714227.283366,[ 26  68 309 297  39  26  25  30]
1679714227.330616,[ 26  61 308 282  38  28  27  26]
1679714227.332067,[ 24  56 350 285  37  26  27  25]
1679714227.343388,[ 26  62 344 252  31  26  27  26]
1679714227.390751,[ 26  71 378 279  39  26  26  27]
1679714227.392269,[ 26  72 406 305  47  26  27  30]
1679714227.403443,[ 24  77 451 345  48  23  24  27]
1679714227.43559,[ 25  80 420 353  50  22  26  30]
1679714227.456826,[ 23  72 408 323  49  24  25  29]
1679714227.463474,[ 25  62 416 305  41  23  26  29]
1679714227.486191,[ 27  64 435 342  45  26  26  29]
1679714227.501043,[ 28  71 399 319  47  26  25  29]
1679714227.523538,[ 30  68 427 306  45  29  27  30]
1679714227.540232,[ 29  65 397 324  52  26  25  29]
1679714227.568982,[ 30  65 353 317  52  26  25  30]
1679714227.583759,[ 31  72 345 293  52  25  28  32]
1679714227.598398,[ 30  70 468 282  52  26  29  34]
1679714227.622405,[ 29  69 425 273  49  26  27  32]
1679714227.643492,[ 31  68 424 320  44  26  30  37]
1679714227.659952,[ 29  81 460 391  47  27  29  36]
1679714227.681036,[ 25  74 481 380  46  26  25  33]
1679714227.711776,[ 29  63 420 390  49  25  28  34]
1679714227.718415,[ 29  64 417 427  55  24  27  33]
1679714227.741708,[ 27  67 432 388  56  24  25  29]
1679714227.779861,[ 28  59 473 311  56  25  26  28]
1679714227.78142,[ 29  53 425 263  49  25  28  30]
1679714227.816692,[ 28  51 371 262  45  27  27  26]
1679714227.823432,[ 27  54 365 258  42  25  26  25]
1679714227.846039,[ 27  54 407 268  39  27  28  29]
1679714227.861191,[ 26  53 381 369  45  26  28  33]
1679714227.891864,[ 26  58 414 491  69  30  31  35]
1679714227.898637,[ 22  57 411 505  71  27  30  35]
1679714227.936714,[ 23  57 405 487  70  28  33  39]
1679714227.943374,[ 24  64 383 501  73  25  33  38]
1679714227.974357,[ 24  71 360 454  79  27  31  36]
1679714227.989245,[ 26  75 340 373  64  23  29  36]
1679714228.019243,[ 27  78 331 342  62  25  28  34]
1679714228.026331,[ 25  78 331 348  64  27  25  30]
1679714228.041013,[ 23  70 288 377  71  28  24  26]
1679714228.063761,[ 24  75 427 359  58  26  26  27]
1679714228.08607,[ 21  67 433 378  59  27  23  23]
1679714228.101044,[ 22  64 436 390  60  26  25  24]
1679714228.131779,[ 23  64 496 402  62  24  26  26]
1679714228.146034,[ 25  68 520 375  53  25  27  28]
1679714228.161137,[ 25  66 382 391  58  27  27  28]
1679714228.183894,[ 25  65 421 350  51  27  28  27]
1679714228.215867,[ 28  97 471 386  51  28  28  30]
1679714228.221255,[ 30 119 508 390  49  31  25  28]
1679714228.244953,[ 30 127 501 392  52  29  24  27]
1679714228.266043,[ 30 132 535 377  46  27  26  31]
1679714228.282458,[ 31 137 513 383  53  27  27  31]
1679714228.303463,[ 29 119 491 354  51  26  28  30]
1679714228.3342,[ 26 101 443 357  59  24  32  30]
1679714228.341279,[ 26  89 502 316  57  25  33  30]
1679714228.371772,[ 27  69 473 370  64  27  32  29]
1679714228.386383,[ 26  59 451 372  62  25  34  30]
1679714228.408627,[ 24  55 452 360  64  26  32  26]
1679714228.424984,[ 25  62 490 322  56  24  30  30]
1679714228.447402,[ 24  60 417 350  55  28  31  35]
1679714228.461072,[ 23  65 421 280  48  27  30  32]
1679714228.483439,[ 24  76 486 281  46  28  27  33]
1679714228.50605,[ 28  83 486 299  49  30  28  36]
1679714228.528759,[ 28  74 407 295  45  31  26  33]
1679714228.544058,[ 26  76 423 259  47  27  26  29]
1679714228.582585,[ 27  86 460 340  50  26  27  31]
1679714228.584007,[ 29  76 389 328  52  26  27  29]
1679714228.613225,[ 27  67 380 305  48  27  26  28]
1679714228.626036,[ 27  66 458 381  63  26  29  31]
1679714228.648493,[ 28  77 470 414  70  28  29  32]
1679714228.66537,[ 26  61 431 360  66  26  27  30]
1679714228.694472,[ 24  65 430 341  66  27  26  28]
1679714228.701201,[ 25  67 415 382  66  26  29  28]
1679714228.723504,[ 27  78 349 326  54  28  26  24]
1679714228.761485,[ 27  70 373 284  39  25  24  25]
1679714228.769992,[ 27  68 366 303  46  26  25  26]
1679714228.787107,[ 26  66 358 295  41  26  25  28]
1679714228.822415,[ 25  69 360 274  40  27  24  27]
1679714228.824221,[ 23  66 370 278  40  25  23  27]
1679714228.844977,[ 24  67 382 322  54  29  24  29]
1679714228.867484,[ 26  80 392 331  59  32  23  28]
1679714228.888739,[ 27  84 385 361  60  31  26  29]
1679714228.904993,[ 29  85 433 335  61  30  26  28]
1679714228.927459,[ 30  85 485 337  68  33  28  31]
1679714228.948498,[ 29  82 458 301  59  30  29  30]
1679714228.96345,[ 28  73 456 304  59  31  32  32]
1679714228.987533,[ 27  70 460 277  57  31  28  30]
1679714229.008554,[ 27  83 465 349  65  34  31  34]
1679714229.023674,[ 25  75 377 345  58  31  29  31]
1679714229.048055,[ 27  73 343 364  56  32  31  30]
1679714229.085011,[ 29  71 384 385  54  33  29  29]
1679714229.086513,[ 28  79 410 380  54  33  30  29]
1679714229.106011,[ 28  71 376 414  50  30  27  28]
1679714229.1368,[ 30  71 408 466  59  28  29  30]
1679714229.167382,[ 26  70 399 492  78  30  26  28]
1679714229.168879,[ 27  78 411 460  74  28  27  29]
1679714229.188549,[ 28  76 396 482  81  30  26  29]
1679714229.206855,[ 28  65 389 402  82  29  30  33]
1679714229.258227,[ 26  62 404 350  76  30  28  32]
1679714229.259596,[ 26  72 469 293  62  28  29  33]
1679714229.271149,[ 26  68 406 285  63  28  27  31]
1679714229.287461,[ 27  60 423 285  57  28  28  32]
1679714229.316424,[ 28  59 425 284  49  31  25  30]
1679714229.324911,[ 28  59 370 269  46  32  26  29]
1679714229.34613,[ 29  63 325 313  60  31  25  29]
1679714229.376756,[ 28  61 372 339  62  30  25  30]
1679714229.383465,[ 25  67 342 325  63  31  27  30]
1679714229.41352,[ 24  73 377 378  73  29  26  28]
1679714229.428575,[ 23  76 440 417  81  28  27  28]
1679714229.443527,[ 23  76 412 381  68  26  28  27]
1679714229.466131,[ 21  74 385 393  68  29  30  25]
1679714229.488442,[ 23  73 411 384  70  28  29  25]
1679714229.50349,[ 23  72 407 341  60  26  31  27]
1679714229.534549,[ 24  74 344 301  58  30  29  26]
1679714229.54846,[ 25  60 339 359  61  31  28  25]
1679714229.563617,[ 28  60 340 344  60  31  27  29]
1679714229.595426,[ 27  62 453 375  65  30  25  30]
1679714229.611892,[ 27  55 417 364  64  30  23  28]
1679714229.640604,[ 29  52 422 367  60  27  24  30]
1679714229.654274,[ 27  49 421 337  57  26  24  29]
1679714229.676679,[ 26  49 404 310  54  23  22  27]
1679714229.683408,[ 27  39 240 262  44  22  23  28]
1679714229.705985,[ 28  46 378 260  44  25  22  28]
1679714229.728548,[ 27  50 372 327  50  27  26  30]
1679714229.743447,[ 28  49 385 300  49  31  29  33]
1679714229.765951,[ 28  50 393 301  46  32  29  32]
1679714229.797853,[ 27  52 377 313  48  33  29  32]
1679714229.804919,[ 26  48 362 380  69  36  30  31]
1679714229.82772,[ 25  52 409 315  66  32  29  30]
1679714229.848948,[ 24  54 408 318  66  31  30  27]
1679714229.87923,[ 24  52 402 311  65  33  31  26]
1679714229.88619,[ 24  48 401 318  68  32  30  24]
1679714229.916799,[ 25  46 267 236  45  28  29  24]
1679714229.939635,[ 24  47 262 251  38  30  30  24]
1679714229.946162,[ 25  47 301 316  45  28  27  27]
1679714229.968462,[ 23  49 311 332  57  27  24  28]
1679714229.991009,[ 24  50 317 311  55  28  27  29]
1679714230.006098,[ 26  54 368 375  62  27  31  32]
1679714230.036776,[ 28  50 433 375  69  26  30  33]
1679714230.051086,[ 28  52 408 316  67  26  32  31]
1679714230.073512,[ 31  50 404 315  58  23  34  33]
1679714230.088451,[ 31  55 438 358  65  23  31  32]
1679714230.11109,[ 29  84 507 361  72  28  29  30]
1679714230.125916,[ 28  88 466 351  67  26  28  31]
1679714230.158118,[ 28  92 455 380  71  27  27  31]
1679714230.171153,[ 26  92 461 375  72  29  26  28]
1679714230.195161,[ 24  94 504 381  65  27  28  29]
1679714230.20997,[ 23  75 412 339  53  23  26  27]
1679714230.239527,[ 26  66 358 326  48  23  26  24]
1679714230.245935,[ 27  60 361 292  44  27  27  24]
1679714230.278065,[ 25  58 353 310  46  27  30  30]
1679714230.299382,[ 27  62 284 285  48  29  29  30]
1679714230.313496,[ 27  67 314 285  44  28  29  31]
1679714230.329318,[ 23  70 319 305  46  31  28  30]
1679714230.351013,[ 25  68 305 340  45  28  28  31]
1679714230.367447,[ 26  70 303 319  40  28  22  26]
1679714230.397016,[ 25  86 347 340  35  26  23  27]
1679714230.435101,[ 23  78 319 343  42  26  24  27]
1679714230.43652,[ 26  75 323 340  47  25  24  30]
1679714230.458281,[ 25  82 344 325  51  25  22  27]
1679714230.493998,[ 25  81 347 327  50  26  25  29]
1679714230.503202,[ 26  51 250 276  51  29  24  29]
1679714230.508462,[ 28  59 404 239  44  28  25  30]
1679714230.54771,[ 25  60 399 228  38  26  24  29]
1679714230.553617,[ 26  56 409 240  37  30  28  31]
1679714230.568481,[ 24  64 452 250  43  30  28  31]
1679714230.607452,[ 26  70 483 257  47  29  32  31]
1679714230.609146,[ 27  61 390 268  47  32  34  34]
1679714230.630808,[ 27  66 385 306  51  34  35  33]
1679714230.65111,[ 26  73 365 339  50  29  33  32]
1679714230.673457,[ 26  74 352 342  47  29  31  30]
1679714230.68854,[ 25  71 412 351  48  29  29  31]
1679714230.712644,[ 23  71 382 360  52  29  26  27]
1679714230.726026,[ 23  68 373 352  53  25  26  28]
1679714230.748555,[ 28  57 362 283  48  28  29  30]
1679714230.770995,[ 28  49 352 265  45  29  31  34]
1679714230.801761,[ 29  48 264 261  46  30  32  35]
1679714230.816063,[ 30  52 314 335  46  32  31  37]
1679714230.831425,[ 30  57 318 374  49  33  31  35]
1679714230.854186,[ 25  75 374 408  67  31  30  34]
1679714230.87,[ 26  81 367 499  74  32  27  29]
1679714230.899387,[ 23  91 348 502  75  30  25  25]
1679714230.913584,[ 28  91 323 444  74  29  29  24]
1679714230.928483,[ 27  96 478 464  72  27  29  22]
1679714230.951026,[ 29  85 470 493  64  28  27  22]
1679714230.989879,[ 29  80 458 398  58  27  28  23]
1679714230.991367,[ 29  66 451 385  53  28  36  28]
1679714231.027029,[ 25  69 437 399  55  29  36  27]
1679714231.036696,[ 25  68 436 382  61  32  38  27]
1679714231.064399,[ 25  68 419 318  62  32  37  27]
1679714231.071108,[ 25  66 423 345  63  31  38  27]
1679714231.093493,[ 24  65 462 364  63  28  32  22]
1679714231.109948,[ 26  70 544 378  63  26  29  25]
1679714231.131054,[ 29  67 423 316  59  29  25  25]
1679714231.161695,[ 26  61 408 353  58  26  27  25]
1679714231.168595,[ 28  61 433 377  55  26  28  26]
1679714231.191644,[ 28  62 404 367  58  30  27  28]
1679714231.213428,[ 29  51 284 338  54  29  27  31]
1679714231.228938,[ 27  51 360 334  51  26  30  34]
1679714231.266688,[ 27  60 412 346  54  29  31  34]
1679714231.27348,[ 26  72 411 304  56  32  30  36]
1679714231.288569,[ 27  70 399 312  57  29  31  36]
1679714231.312429,[ 24  84 484 336  60  30  29  32]
1679714231.333481,[ 24  76 442 317  57  30  26  28]
1679714231.348524,[ 28  74 398 248  48  28  25  29]
1679714231.372494,[ 28  64 374 311  49  24  23  25]
1679714231.393468,[ 25  65 380 325  46  25  23  24]
1679714231.408542,[ 28  48 284 310  41  25  26  28]
1679714231.439448,[ 28  58 356 369  66  28  26  31]
1679714231.477429,[ 27  58 359 380  66  27  26  30]
1679714231.478945,[ 27  62 403 345  65  28  28  31]
1679714231.491012,[ 28  61 397 318  64  27  26  30]
1679714231.513663,[ 25  77 430 317  67  27  28  26]
1679714231.54451,[ 23  74 353 277  47  24  26  22]
1679714231.551145,[ 24  76 404 316  48  26  28  24]
1679714231.583198,[ 26  74 394 335  48  25  28  23]
1679714231.588402,[ 25  78 429 339  57  27  26  24]
1679714231.627943,[ 28  68 423 328  58  27  24  26]
1679714231.638582,[ 31  66 423 326  56  32  31  30]
1679714231.665456,[ 30  59 431 316  57  31  31  32]
1679714231.679959,[ 29  59 399 302  58  32  30  31]
1679714231.701782,[ 29  67 414 309  55  32  34  35]
1679714231.708595,[ 26  68 422 348  48  30  34  35]
1679714231.732491,[ 25  65 439 347  48  25  29  32]
1679714231.753453,[ 22  63 375 320  48  26  28  29]
1679714231.776111,[ 24  64 397 296  46  25  31  33]
1679714231.814673,[ 26  49 340 298  42  25  27  28]
1679714231.821832,[ 28  46 367 307  48  25  27  27]
1679714231.836285,[ 28  59 370 294  51  26  26  26]
1679714231.852565,[ 29  60 395 327  55  27  27  28]
1679714231.874914,[ 28  62 380 327  56  29  26  26]
1679714231.896465,[ 25  67 449 329  56  29  26  28]
1679714231.912442,[ 25  63 403 286  51  30  27  31]
1679714231.941895,[ 24  62 419 294  52  29  29  31]
1679714231.964221,[ 25  63 392 285  42  27  26  30]
1679714231.978538,[ 25  61 465 300  44  29  24  31]
1679714231.993485,[ 30  57 398 288  44  30  31  32]
1679714232.01597,[ 28  58 367 283  48  31  29  28]
1679714232.032544,[ 28  66 394 306  52  30  31  32]
1679714232.06192,[ 27  68 438 305  55  31  32  32]
1679714232.075977,[ 28  74 342 295  55  28  32  32]
1679714232.098503,[ 24  76 343 299  56  28  25  31]
1679714232.115663,[ 26  73 341 323  59  29  28  33]
1679714232.14429,[ 27  65 304 333  52  29  27  33]
1679714232.151024,[ 26  65 284 383  56  30  27  32]
1679714232.181804,[ 27  63 294 372  55  29  28  32]
1679714232.220394,[ 26  59 290 379  54  28  28  34]
1679714232.222151,[ 25  61 292 358  47  25  26  31]
1679714232.233408,[ 24  50 261 321  47  26  25  28]
1679714232.256618,[ 25  47 242 225  38  23  24  28]
1679714232.271052,[ 25  67 271 278  36  24  25  28]
1679714232.326817,[ 27  76 313 265  39  24  25  25]
1679714232.328381,[ 30  74 325 285  45  25  26  30]
1679714232.340046,[ 30  79 389 291  44  24  25  30]
1679714232.3617,[ 29  95 427 318  51  27  26  31]
1679714232.376339,[ 27  82 411 286  49  28  25  32]
1679714232.398494,[ 26  74 427 301  47  26  25  33]
1679714232.415084,[ 23  75 457 289  42  28  26  29]
1679714232.452728,[ 25  77 408 282  46  29  29  30]
1679714232.454025,[ 27  58 354 282  43  27  29  27]
1679714232.473684,[ 29  70 388 273  43  28  29  28]
1679714232.495951,[ 28  70 360 250  43  29  28  25]
1679714232.511023,[ 27  69 308 241  44  27  28  27]
1679714232.535075,[ 25  61 334 264  39  25  26  29]
1679714232.555989,[ 24  59 345 231  41  25  25  30]
1679714232.57847,[ 26  66 371 271  41  23  26  31]
1679714232.601063,[ 27  70 363 302  45  25  27  33]
1679714232.615964,[ 28  71 459 316  46  31  28  32]
1679714232.631113,[ 28  72 435 309  55  32  28  29]
1679714232.655052,[ 28  79 461 361  53  31  29  32]
1679714232.708046,[ 25  60 436 346  58  34  29  30]
1679714232.709607,[ 24  53 471 337  58  31  30  30]
1679714232.713391,[ 25  55 380 395  56  28  30  31]
1679714232.744159,[ 24  54 365 400  54  29  28  29]
1679714232.758466,[ 23  64 414 383  57  28  28  27]
1679714232.774952,[ 23  72 390 372  57  25  27  28]
1679714232.797507,[ 25  73 340 361  54  26  27  28]
1679714232.818556,[ 23  72 334 300  55  25  26  26]
1679714232.833491,[ 28  74 335 303  59  25  38  34]
1679714232.85646,[ 29  55 191 286  54  28  44  36]
1679714232.878539,[ 31  47 183 285  51  42  47  40]
1679714232.909223,[ 29  55 328 281  55  44  47  41]
1679714232.931738,[ 29  61 346 383  63  44  48  42]
1679714232.946707,[ 24  59 343 381  56  43  40  37]
1679714232.960994,[ 26  62 444 376  57  41  31  34]
1679714232.984721,[ 27  64 507 383  58  27  29  31]
1679714233.006806,[ 29  58 440 403  54  25  25  30]
1679714233.029206,[ 28  56 433 315  46  25  24  29]
1679714233.035916,[ 30  56 433 303  45  25  24  28]
1679714233.058509,[ 28  54 334 316  41  27  26  29]
1679714233.091122,[ 28  53 327 322  40  28  27  27]
1679714233.095964,[ 28  57 313 307  38  26  27  24]
1679714233.128152,[ 31  54 311 325  40  27  27  22]
1679714233.141051,[ 29  53 313 332  40  28  26  22]
1679714233.171707,[ 30  53 381 304  42  26  28  22]
1679714233.17851,[ 28  54 339 284  38  24  25  21]
1679714233.193424,[ 27  59 367 323  45  26  25  23]
1679714233.215989,[ 24  57 366 320  40  24  24  23]
1679714233.246708,[ 24  62 394 309  43  26  27  24]
1679714233.253391,[ 22  69 395 309  45  27  22  23]
1679714233.284227,[ 24  72 380 335  47  29  24  25]
1679714233.299055,[ 25  70 367 330  48  27  24  27]
1679714233.329281,[ 26  79 385 301  56  28  26  27]
1679714233.336515,[ 26  74 381 311  57  26  24  27]
1679714233.367025,[ 30  69 362 393  62  26  25  29]
1679714233.381083,[ 27  64 364 402  68  28  26  27]
1679714233.419898,[ 29  57 345 379  65  29  28  27]
1679714233.421406,[ 30  44 330 386  59  29  30  28]
1679714233.433495,[ 29  47 389 379  57  29  32  27]
1679714233.456044,[ 26  45 351 291  50  30  32  29]
1679714233.479943,[ 28  48 383 244  40  26  31  31]
1679714233.512959,[ 26  55 383 238  37  24  29  29]
1679714233.515963,[ 25  60 381 241  43  27  27  28]
1679714233.538601,[ 24  58 283 218  43  27  24  28]
1679714233.5535,[ 23  60 341 229  41  25  24  26]
1679714233.576011,[ 23  66 317 275  49  26  24  25]
1679714233.606539,[ 21  62 330 268  48  27  24  26]
1679714233.614984,[ 20  58 449 238  51  28  25  29]
1679714233.643582,[ 24  61 466 316  49  28  28  30]
1679714233.658609,[ 26  66 480 327  52  30  30  29]
1679714233.681017,[ 27  62 460 305  47  30  30  29]
1679714233.697448,[ 27  58 452 303  48  29  32  27]
1679714233.727137,[ 27  57 324 299  43  28  31  25]
1679714233.741104,[ 26  55 316 251  43  28  29  25]
1679714233.76498,[ 25  46 295 285  55  31  30  24]
1679714233.803817,[ 23  62 375 304  60  28  29  24]
1679714233.805705,[ 23  72 385 313  70  31  27  25]
1679714233.816463,[ 25  72 409 331  68  28  28  27]
1679714233.838451,[ 24  74 408 308  69  26  29  26]
1679714233.860981,[ 23  74 389 293  61  25  25  25]
1679714233.877441,[ 28  72 424 316  62  27  25  26]
1679714233.898465,[ 28  68 423 315  56  29  25  24]
1679714233.922494,[ 27  68 419 305  56  31  26  22]
1679714233.937546,[ 26  67 406 320  57  32  25  23]
1679714233.959933,[ 27  70 398 294  52  28  26  25]
1679714233.989159,[ 22  49 279 255  41  28  27  25]
1679714233.998083,[ 22  42 278 253  33  25  27  26]
1679714234.018502,[ 21  70 309 252  31  23  26  27]
1679714234.043403,[ 20  77 352 237  27  24  24  27]
1679714234.057468,[ 19  72 323 284  30  27  24  26]
1679714234.079939,[ 22  73 372 268  30  27  22  25]
1679714234.101055,[ 22  77 364 290  31  25  23  25]
1679714234.140118,[ 23  66 357 302  43  27  23  24]
1679714234.141515,[ 23  60 354 311  45  27  24  24]
1679714234.161017,[ 27  61 354 296  48  26  26  25]
1679714234.176053,[ 25  60 286 285  48  25  26  25]
1679714234.198493,[ 26  55 286 271  52  27  26  27]
1679714234.221004,[ 25  40 230 311  46  28  25  26]
1679714234.23751,[ 25  35 177 328  47  30  30  28]
1679714234.258463,[ 22  73 344 322  43  28  29  27]
1679714234.280985,[ 21  79 363 325  45  29  28  27]
1679714234.29719,[ 25  80 357 304  40  29  29  26]
1679714234.320398,[ 26  78 365 284  41  26  29  28]
1679714234.349219,[ 25  80 437 264  38  23  26  24]
1679714234.356,[ 25  59 405 234  41  26  27  27]
1679714234.378527,[ 28  54 382 234  37  27  29  29]
1679714234.401007,[ 27  53 398 244  39  31  31  31]
1679714234.423821,[ 27  53 392 222  38  40  33  35]
1679714234.439921,[ 29  53 318 219  38  41  34  35]
1679714234.47651,[ 29  56 336 243  39  44  33  33]
1679714234.493432,[ 29  56 372 274  42  42  32  33]
1679714234.498513,[ 28  56 380 278  50  41  32  32]
1679714234.521575,[ 27  60 407 303  53  32  31  27]
1679714234.536249,[ 27  71 530 320  55  29  30  28]
1679714234.566057,[ 26  66 465 311  56  25  29  28]
1679714234.596432,[ 25  71 443 294  55  28  32  30]
1679714234.604941,[ 28  73 429 293  48  31  30  31]
1679714234.650634,[ 31  71 407 244  43  31  36  35]
1679714234.652273,[ 30  59 210 279  40  39  38  35]
1679714234.663495,[ 31  59 293 295  41  41  39  36]
1679714234.679938,[ 32  53 302 294  39  40  38  35]
1679714234.710437,[ 28  54 363 299  40  37  39  34]
1679714234.735897,[ 25  61 371 469  69  38  33  31]
1679714234.738755,[ 27  74 429 445  71  32  29  31]
1679714234.761,[ 26  69 450 429  69  30  26  28]
1679714234.791801,[ 27  67 439 428  70  27  24  28]
1679714234.806024,[ 27  64 386 438  73  28  25  27]
1679714234.822662,[ 29  57 402 309  49  27  30  30]
1679714234.843656,[ 28  48 356 302  51  27  33  30]
1679714234.860087,[ 29  55 306 305  48  24  35  32]
1679714234.88104,[ 25  59 380 333  51  26  36  33]
1679714234.911818,[ 25  59 391 330  49  25  36  33]
1679714234.91845,[ 23  66 392 280  49  25  31  28]
1679714234.942895,[ 20  66 386 280  45  24  29  28]
1679714234.96349,[ 20  60 353 322  46  25  28  29]
1679714234.980154,[ 22  55 308 295  45  24  28  27]
1679714235.001062,[ 25  56 306 284  39  24  25  27]
1679714235.023571,[ 26  60 380 316  40  24  25  26]
1679714235.038597,[ 26  64 376 318  41  24  25  24]
1679714235.061066,[ 29  64 465 282  42  24  25  23]
1679714235.083437,[ 27  67 478 276  47  26  23  23]
1679714235.100136,[ 25  80 523 313  47  26  23  23]
1679714235.120992,[ 25  72 535 291  42  25  25  29]
1679714235.143633,[ 25  63 555 293  41  25  29  31]
1679714235.19059,[ 23  62 474 291  45  27  29  29]
1679714235.19235,[ 23  71 491 314  39  25  31  29]
1679714235.203459,[ 24  59 488 284  42  26  29  28]
1679714235.21851,[ 25  56 427 270  43  23  30  23]
1679714235.240935,[ 26  60 405 267  47  25  27  21]
1679714235.2733,[ 25  57 401 257  42  21  27  23]
1679714235.27843,[ 28  45 373 339  43  22  27  25]
1679714235.301001,[ 26  46 378 366  48  24  28  26]
1679714235.323725,[ 26  47 335 359  46  24  27  24]
1679714235.346212,[ 27  41 334 380  43  23  30  27]
1679714235.361401,[ 27  45 338 421  52  27  30  26]
1679714235.391723,[ 25  52 394 348  54  27  28  24]
1679714235.398419,[ 25  49 321 294  46  25  29  23]
1679714235.422497,[ 28  45 328 325  48  25  32  26]
1679714235.443446,[ 27  49 327 320  52  29  29  23]
1679714235.474193,[ 27  47 334 268  43  25  28  23]
1679714235.480995,[ 27  46 308 262  42  24  32  25]
1679714235.512242,[ 30  48 345 300  51  25  31  26]
1679714235.518468,[ 28  51 362 314  54  25  28  26]
1679714235.551009,[ 29  52 357 304  52  24  27  26]
1679714235.571742,[ 32  84 542 311  56  25  31  29]
1679714235.586026,[ 31  87 512 342  68  27  27  28]
1679714235.600891,[ 29  87 491 397  64  27  30  27]
1679714235.63219,[ 27  86 482 365  63  28  30  26]
1679714235.646546,[ 24  85 480 347  60  26  30  27]
1679714235.670736,[ 21  87 471 359  69  28  26  25]
1679714235.683515,[ 21  79 461 351  55  29  27  28]
1679714235.707426,[ 23  79 461 278  51  27  24  28]
1679714235.728504,[ 21  79 464 327  56  27  23  27]
1679714235.745331,[ 22  91 589 368  58  29  22  26]
1679714235.774371,[ 23  63 438 352  46  26  22  26]
1679714235.780974,[ 26  63 434 328  46  26  23  24]
1679714235.827403,[ 24  67 445 342  58  30  22  24]
1679714235.828911,[ 27  69 489 317  55  30  23  27]
1679714235.840983,[ 26  57 435 265  54  28  22  26]
1679714235.86511,[ 27  57 435 287  62  31  25  26]
1679714235.885933,[ 26  58 433 324  65  30  25  25]
1679714235.918115,[ 27  53 425 320  56  29  26  27]
1679714235.939204,[ 26  53 428 312  55  29  27  24]
1679714235.949438,[ 26  53 339 311  54  30  29  24]
1679714235.961053,[ 25  57 392 290  47  28  27  24]
1679714235.984941,[ 25  58 390 290  43  27  27  28]
1679714236.005963,[ 26  58 393 272  43  26  26  26]
1679714236.021474,[ 26  63 369 266  39  24  25  28]
1679714236.051458,[ 27  61 365 277  43  26  23  28]
1679714236.074174,[ 27  60 348 280  37  25  24  31]
1679714236.104845,[ 25  60 368 266  42  26  24  26]
1679714236.106399,[ 25  64 388 273  42  25  26  30]
1679714236.127427,[ 24  66 359 275  45  25  26  30]
1679714236.14093,[ 23  61 356 306  43  23  29  35]
1679714236.179233,[ 23  58 324 346  53  24  29  32]
1679714236.186131,[ 24  58 346 324  51  23  27  33]
1679714236.233022,[ 23  62 399 313  51  25  28  31]
1679714236.234558,[ 25  55 382 311  50  26  28  32]
1679714236.262348,[ 24  59 386 307  53  26  25  27]
1679714236.263923,[ 24  61 383 282  48  25  26  28]
1679714236.28358,[ 24  60 427 297  47  25  28  28]
1679714236.305918,[ 24  57 362 282  53  27  25  26]
1679714236.328603,[ 23  55 360 309  52  24  24  25]
1679714236.345,[ 25  61 431 298  50  23  25  26]
1679714236.367246,[ 25  61 472 289  48  23  23  25]
1679714236.382416,[ 23  64 400 262  46  25  23  25]
1679714236.403469,[ 23  58 390 286  38  22  26  30]
1679714236.425913,[ 21  65 442 272  45  26  24  28]
1679714236.448631,[ 19  69 434 282  47  28  25  30]
1679714236.473008,[ 24  67 474 266  45  27  28  32]
1679714236.48598,[ 24  68 473 323  58  26  28  34]
1679714236.508846,[ 26  70 475 324  57  28  27  30]
1679714236.54082,[ 27  64 434 314  53  28  29  32]
1679714236.546038,[ 26  62 423 290  50  28  27  29]
1679714236.569599,[ 23  62 410 294  51  29  27  29]
1679714236.592443,[ 26  57 403 249  34  28  26  27]
1679714236.621709,[ 24  58 407 229  37  32  25  26]
1679714236.636861,[ 25  57 425 239  35  29  23  24]
1679714236.64347,[ 27  50 415 257  39  31  25  26]
1679714236.666069,[ 25  48 316 330  46  31  23  23]
1679714236.698185,[ 23  53 324 342  52  33  22  24]
1679714236.70394,[ 21  56 339 343  51  30  24  24]
1679714236.743125,[ 19  60 342 345  55  30  25  25]
1679714236.748439,[ 20  67 338 358  51  29  24  28]
1679714236.779184,[ 22  69 348 285  44  30  25  30]
1679714236.786024,[ 22  66 348 285  41  28  27  32]
1679714236.818236,[ 22  60 329 285  41  28  27  32]
1679714236.831008,[ 24  58 376 268  35  28  27  35]
1679714236.861951,[ 22  48 316 250  37  27  28  31]
1679714236.868469,[ 25  44 313 243  38  25  28  31]
1679714236.923102,[ 26  56 353 200  34  27  26  29]
1679714236.924648,[ 29  62 380 212  32  26  27  29]
1679714236.952305,[ 30  64 310 271  38  27  24  27]
1679714236.959292,[ 29  64 312 303  42  29  23  25]
1679714236.965964,[ 27  68 396 323  47  28  21  27]
1679714236.98862,[ 26  64 400 339  46  26  22  26]
1679714237.005994,[ 24  60 371 453  68  29  19  24]
1679714237.027721,[ 23  56 361 436  68  26  19  24]
1679714237.049113,[ 23  52 357 399  66  23  21  28]
1679714237.063484,[ 21  44 241 388  63  24  21  25]
1679714237.095707,[ 21  33 140 375  63  25  22  25]
1679714237.131476,[ 19  31 111 212  39  23  22  26]
1679714237.14068,[ 20  46 225 179  42  24  25  27]
1679714237.146153,[ 20  55 244 217  40  24  24  23]
1679714237.168469,[ 21  58 380 273  44  27  26  27]
1679714237.183558,[ 24  59 405 277  44  26  25  28]
1679714237.22228,[ 27  61 412 268  44  25  27  29]
1679714237.22992,[ 27  54 394 323  48  25  26  29]
1679714237.267445,[ 26  52 393 309  54  26  26  30]
1679714237.268972,[ 28  54 287 317  54  23  29  31]
1679714237.296687,[ 26  56 272 356  61  24  30  32]
1679714237.311019,[ 21  57 333 381  65  25  28  30]
1679714237.335061,[ 22  65 373 348  60  24  28  29]
1679714237.37263,[ 26  61 373 354  52  24  29  29]
1679714237.373985,[ 24  57 359 324  50  24  26  26]
1679714237.409253,[ 25  57 349 307  43  23  24  24]
1679714237.41765,[ 25  54 290 282  34  22  23  27]
1679714237.43127,[ 26  41 221 262  33  25  25  28]
1679714237.454925,[ 24  35 202 233  34  25  26  28]
1679714237.485607,[ 23  50 268 226  34  26  27  30]
1679714237.490925,[ 24  58 283 250  36  25  27  32]
1679714237.513457,[ 25  62 314 261  44  25  28  32]
1679714237.536095,[ 24  61 286 258  41  23  25  29]
1679714237.550985,[ 25  61 283 276  44  23  26  30]
1679714237.597652,[ 26  52 225 287  48  23  24  29]
1679714237.59895,[ 24  40 200 234  46  24  24  28]
1679714237.610957,[ 24  38 201 235  38  25  26  27]
1679714237.634919,[ 24  46 230 269  41  25  26  28]
1679714237.649903,[ 23  55 247 272  40  23  24  28]
1679714237.702856,[ 24  56 245 241  39  23  22  27]
1679714237.711072,[ 23  55 244 348  42  22  27  27]
1679714237.732336,[ 21  66 279 352  51  24  25  25]
1679714237.733862,[ 23  65 272 430  58  25  25  26]
1679714237.769904,[ 22  60 274 435  58  26  26  26]
1679714237.771436,[ 21  61 273 470  59  26  26  25]
1679714237.791149,[ 22  65 273 397  56  26  22  25]
1679714237.82103,[ 25  61 327 385  46  24  25  27]
1679714237.830277,[ 24  60 327 266  38  25  24  25]
1679714237.852668,[ 26  59 327 247  39  26  23  27]
1679714237.891321,[ 26  56 333 201  35  24  24  26]
1679714237.892881,[ 27  53 336 204  40  24  26  28]
1679714237.92745,[ 26  41 203 209  40  23  23  26]
1679714237.928922,[ 28  56 245 241  50  26  25  28]
1679714237.964187,[ 27  77 295 263  49  25  25  28]
1679714237.971092,[ 28  80 297 231  48  27  25  29]
1679714237.987498,[ 28  79 296 229  45  27  26  28]
1679714238.009048,[ 26  80 289 221  46  27  29  29]
1679714238.048538,[ 25  75 324 272  49  25  29  26]
1679714238.053399,[ 25  57 268 250  49  24  28  26]
1679714238.068602,[ 29  53 254 268  48  23  30  29]
1679714238.090989,[ 27  52 268 284  48  23  27  28]
1679714238.138823,[ 27  54 293 330  59  25  23  27]
1679714238.140794,[ 27  56 270 273  46  21  24  29]
1679714238.152438,[ 26  59 272 263  45  22  23  28]
1679714238.173726,[ 21  58 275 262  48  25  20  26]
1679714238.205692,[ 20  58 257 245  49  25  19  25]
1679714238.210972,[ 20  56 228 185  37  23  22  27]
1679714238.242449,[ 19  47 142 260  43  25  20  25]
1679714238.265933,[ 23  46 219 277  46  23  23  28]
1679714238.296846,[ 21  48 221 267  46  22  23  24]
1679714238.298071,[ 22  51 234 264  44  23  26  25]
1679714238.309965,[ 23  49 246 301  48  23  27  27]
1679714238.332927,[ 24  47 261 254  47  24  28  28]
1679714238.379209,[ 20  45 266 246  48  25  26  25]
1679714238.380464,[ 22  43 269 265  45  25  26  27]
1679714238.406743,[ 23  43 266 283  47  27  25  26]
1679714238.429191,[ 23  44 276 267  48  28  22  23]
1679714238.445602,[ 23  44 254 237  41  27  24  24]
1679714238.458683,[ 24  39 180 234  40  27  24  23]
1679714238.482536,[ 23  43 228 254  41  27  25  22]
1679714238.490054,[ 22  49 256 262  50  27  25  23]
1679714238.551569,[ 24  50 234 259  52  27  27  26]
1679714238.552575,[ 53  58 245 271  56  30  39  28]
1679714238.565731,[ 63  65 244 264  55  35  75  51]
1679714238.570964,[ 68  63 200 240  54  35  77  56]
1679714238.594224,[ 68  92 279 263  54  35  79  56]
1679714238.610036,[ 68  95 290 248  50  34  81  56]
1679714238.638689,[ 51  91 287 263  49  32  77  56]
1679714238.653916,[ 39  89 289 303  49  25  43  38]
1679714238.693807,[ 28  91 288 327  57  28  39  30]
1679714238.69538,[ 29  65 223 292  48  23  35  30]
1679714238.731288,[ 28  71 311 286  50  25  29  27]
1679714238.73305,[ 23  71 311 263  48  26  26  23]
1679714238.759943,[ 21  71 323 285  46  27  25  23]
1679714238.774959,[ 23  66 320 259  42  24  25  23]
1679714238.805688,[ 21  57 289 261  44  25  25  24]
1679714238.811195,[ 21  43 190 257  44  24  25  24]
1679714238.842502,[ 24  40 181 257  46  23  24  23]
1679714238.851393,[ 24  49 234 246  52  25  24  23]
1679714238.878802,[ 23  53 240 229  47  25  24  24]
1679714238.902915,[ 24  58 251 225  54  27  29  22]
1679714238.91749,[ 26  57 262 289  52  27  32  28]
1679714238.932571,[ 24  69 325 322  60  30  33  30]
1679714238.962479,[ 25  59 278 292  58  29  34  30]
1679714238.970067,[ 25  60 277 289  60  28  34  30]
1679714238.990983,[ 25  56 277 320  61  25  30  31]
1679714239.021748,[ 23  57 257 269  59  26  28  27]
1679714239.037629,[ 24  42 169 229  51  23  27  26]
1679714239.074078,[ 25  53 228 229  46  24  28  27]
1679714239.082538,[ 27  49 224 236  44  26  27  26]
1679714239.089973,[ 29  51 211 229  36  26  28  26]
1679714239.112558,[ 28  53 243 238  41  26  29  27]
1679714239.133752,[ 28  56 243 247  38  25  28  27]
1679714239.157556,[ 27  45 176 247  39  25  25  26]
1679714239.17248,[ 24  48 237 243  36  23  25  27]
1679714239.195026,[ 22  50 281 204  36  26  22  25]
1679714239.209935,[ 22  47 276 197  29  26  21  24]
1679714239.231153,[ 22  43 276 181  29  25  24  26]
1679714239.253547,[ 21  40 276 172  28  25  22  26]
1679714239.27744,[ 22  41 226 236  48  28  24  29]
1679714239.308169,[ 23  43 212 269  50  26  26  30]
1679714239.313445,[ 24  53 237 258  51  26  25  28]
1679714239.369523,[ 24  56 287 255  51  28  23  28]
1679714239.371122,[ 24  58 297 256  53  26  24  25]
1679714239.398872,[ 26  56 298 195  43  23  25  25]
1679714239.400475,[ 25  65 313 166  39  23  23  24]
1679714239.420219,[ 24  64 306 214  42  23  24  25]
1679714239.43343,[ 24  62 267 262  44  23  25  25]
1679714239.456244,[ 26  60 254 251  41  24  28  28]
1679714239.472465,[ 23  61 261 270  39  25  26  25]
1679714239.509236,[ 27  51 195 263  40  25  27  27]
1679714239.516076,[ 27  53 320 255  37  23  26  29]
1679714239.532648,[ 26  56 324 271  37  22  25  27]
1679714239.553484,[ 28  56 330 292  38  24  23  28]
1679714239.59233,[ 28  52 324 276  35  26  26  29]
1679714239.593893,[ 24  48 329 267  34  26  27  30]
1679714239.613786,[ 25  38 167 245  35  28  25  26]
1679714239.635997,[ 25  42 256 210  36  28  27  29]
1679714239.668203,[ 21  46 262 190  36  28  25  27]
1679714239.673576,[ 22  47 273 182  33  27  23  27]
1679714239.71377,[ 23  46 272 196  31  27  25  27]
1679714239.71544,[ 24  45 265 257  46  30  27  28]
1679714239.733535,[ 25  36 166 265  48  29  27  28]
1679714239.764937,[ 27  36 167 274  49  28  27  26]
1679714239.772949,[ 27  48 265 290  49  29  31  30]
1679714239.794168,[ 26  52 274 314  54  29  28  27]
1679714239.824914,[ 26  50 281 290  42  27  31  31]
1679714239.832678,[ 25  53 294 261  37  27  30  29]
1679714239.866019,[ 24  53 329 273  43  27  30  30]
1679714239.876014,[ 22  44 252 265  44  25  26  24]
1679714239.90791,[ 24  42 242 233  42  25  29  26]
1679714239.914918,[ 24  43 239 219  41  24  23  22]
1679714239.937489,[ 24  41 221 221  44  25  23  23]
1679714239.958567,[ 24  38 144 180  35  25  23  26]
1679714239.982446,[ 24  37 147 173  34  27  24  27]
1679714239.996002,[ 22  47 278 225  36  28  22  25]
1679714240.01249,[ 21  49 291 218  39  29  23  24]
1679714240.040989,[ 23  56 292 217  35  30  26  26]
1679714240.072168,[ 25  58 297 211  35  30  26  23]
1679714240.078431,[ 25  58 285 256  38  27  26  26]
1679714240.109217,[ 24  50 162 220  38  28  26  27]
1679714240.116006,[ 25  50 169 217  37  25  25  29]
1679714240.148147,[ 23  53 241 211  37  23  23  26]
1679714240.153464,[ 23  59 245 278  45  23  23  24]
1679714240.185633,[ 24  61 251 243  45  26  21  22]
1679714240.19848,[ 25  61 244 228  40  24  24  24]
1679714240.213666,[ 25  59 219 227  37  27  26  26]
1679714240.236027,[ 25  47 174 246  45  26  26  27]
1679714240.252623,[ 24  48 239 233  45  30  26  28]
1679714240.281021,[ 25  48 242 247  42  26  25  29]
1679714240.303511,[ 25  46 248 257  45  27  25  28]
1679714240.342947,[ 24  47 252 251  46  26  24  24]
1679714240.35887,[ 25  47 256 228  39  27  24  24]
1679714240.360407,[ 26  32 190 176  29  24  27  26]
1679714240.38679,[ 25  46 264 178  34  27  28  25]
1679714240.39343,[ 24  61 271 176  35  25  26  24]
1679714240.424964,[ 26  61 298 185  33  25  26  26]
1679714240.438455,[ 26  63 275 210  35  24  27  25]
1679714240.462469,[ 25  65 276 200  36  23  25  23]
1679714240.476047,[ 24  53 205 196  38  23  23  22]
1679714240.508462,[ 25  39 199 204  35  25  25  24]
1679714240.513363,[ 24  70 260 219  39  26  24  23]
1679714240.545792,[ 25  71 261 255  42  26  22  22]
1679714240.566859,[ 24  70 271 295  44  26  22  24]
1679714240.597384,[ 25  70 268 286  40  25  22  23]
1679714240.599077,[ 25  73 259 303  42  26  22  25]
1679714240.635029,[ 27  53 292 324  47  25  23  24]
1679714240.636498,[ 25  52 299 310  45  25  24  25]
1679714240.655961,[ 27  51 284 277  44  24  25  24]
1679714240.702675,[ 26  55 284 270  42  24  25  25]
1679714240.704078,[ 25  54 287 237  40  23  26  23]
1679714240.725131,[ 23  46 148 194  31  23  25  25]
1679714240.740012,[ 23  43 125 144  30  23  25  24]
1679714240.755084,[ 21  41 121 166  28  24  26  26]
1679714240.775986,[ 20  41 130 172  34  24  25  25]
1679714240.79865,[ 22  45 240 189  36  24  25  28]
1679714240.822471,[ 24  48 243 233  43  22  26  27]
1679714240.835978,[ 24  48 245 257  45  21  26  29]
1679714240.858571,[ 22  51 257 241  45  22  23  26]
1679714240.874986,[ 26  48 249 242  41  22  25  28]
1679714240.89603,[ 25  39 171 232  39  25  26  25]
1679714240.933932,[ 23  38 161 215  32  25  25  24]
1679714240.942529,[ 23  43 267 222  36  29  27  24]
1679714240.956134,[ 26  42 260 256  41  27  27  25]
1679714240.980168,[ 25  43 270 254  41  27  28  28]
1679714241.002477,[ 25  42 270 286  47  27  25  28]
1679714241.017437,[ 27  43 275 280  45  27  26  28]
1679714241.038512,[ 28  39 171 274  42  24  25  25]
1679714241.055025,[ 26  38 172 249  40  26  27  28]
1679714241.079701,[ 25  53 275 250  41  24  23  23]
1679714241.098538,[ 25  54 267 227  34  24  24  24]
1679714241.114921,[ 22  56 264 194  34  25  25  26]
1679714241.137466,[ 21  56 271 171  28  23  24  27]
1679714241.158431,[ 22  56 283 183  30  21  22  28]
1679714241.17529,[ 23  52 211 204  35  23  24  30]
1679714241.219947,[ 23  59 263 196  38  22  23  28]
1679714241.221421,[ 23  60 274 238  39  19  21  26]
1679714241.23495,[ 22  61 272 277  43  21  21  29]
1679714241.256062,[ 22  60 260 270  41  22  22  24]
1679714241.286014,[ 20  59 294 281  40  22  23  26]
1679714241.309302,[ 21  56 256 274  40  24  23  27]
1679714241.34006,[ 21  51 246 251  39  25  24  28]
1679714241.341606,[ 25  52 243 243  36  25  25  27]
1679714241.362536,[ 25  63 351 248  37  25  25  28]
1679714241.376063,[ 25  61 314 246  40  24  23  25]
1679714241.41575,[ 25  62 309 244  37  23  24  27]
1679714241.429228,[ 26  67 331 231  36  22  23  26]
1679714241.451786,[ 23  65 337 225  44  23  23  24]
1679714241.458545,[ 22  54 223 234  44  24  25  25]
1679714241.481023,[ 24  66 349 238  41  25  24  24]
1679714241.51322,[ 23  68 360 257  44  25  23  23]
1679714241.534353,[ 22  62 342 289  46  27  22  23]
1679714241.548956,[ 24  62 354 268  37  27  23  24]
1679714241.571769,[ 23  73 446 246  40  26  22  25]
1679714241.578398,[ 25  62 357 206  38  25  22  24]
1679714241.609217,[ 24  58 338 204  38  26  24  25]
1679714241.615984,[ 24  59 334 208  38  26  24  24]
1679714241.639939,[ 21  57 323 196  39  24  23  24]
1679714241.661331,[ 24  60 316 201  34  24  24  21]
1679714241.677421,[ 24  59 308 324  36  24  25  24]
1679714241.746194,[ 24  61 317 359  43  23  25  23]
1679714241.747727,[ 24  60 317 346  45  25  26  26]
1679714241.752144,[ 26  61 331 365  44  25  24  27]
1679714241.766049,[ 24  55 268 449  50  28  25  27]
1679714241.781115,[ 22  63 261 380  49  27  26  25]
1679714241.79596,[ 23  61 266 344  44  26  29  26]
1679714241.819289,[ 23  61 310 340  40  24  28  29]
1679714241.864681,[ 22  72 395 330  48  26  28  28]
1679714241.88729,[ 20  68 360 227  42  22  26  26]
1679714241.894425,[ 21  58 359 210  43  23  26  27]
1679714241.901467,[ 21  53 348 201  42  23  21  25]
1679714241.916056,[ 20  54 323 212  44  25  22  18]
1679714241.946169,[ 20  43 197 218  45  25  24  22]
1679714241.960931,[ 21  58 295 193  49  27  25  24]
1679714241.976405,[ 19  57 298 221  47  25  26  26]
1679714242.006126,[ 20  59 301 247  52  24  27  28]
1679714242.02268,[ 22  61 313 243  51  23  27  29]
1679714242.036026,[ 23  58 300 229  46  21  26  27]
1679714242.05855,[ 25  51 235 225  41  19  26  27]
1679714242.09066,[ 25  65 286 238  46  22  25  24]
1679714242.119968,[ 25  69 294 244  41  22  26  25]
1679714242.121388,[ 25  66 269 238  40  23  25  26]
1679714242.142504,[ 23  77 323 337  46  24  26  26]
1679714242.171855,[ 21  76 305 363  50  26  28  26]
1679714242.178608,[ 24  64 255 339  47  26  27  28]
1679714242.21083,[ 24  58 267 313  44  27  27  26]
1679714242.232008,[ 23  61 268 318  49  27  26  24]
1679714242.247667,[ 25  51 237 242  43  27  26  25]
1679714242.262522,[ 25  46 250 199  39  25  24  27]
1679714242.293316,[ 21  46 298 204  43  26  23  27]
1679714242.298812,[ 22  48 273 282  48  26  25  28]
1679714242.328652,[ 21  56 281 282  53  27  27  28]
1679714242.367489,[ 20  57 303 267  53  27  28  29]
1679714242.36896,[ 22  53 289 312  58  28  29  27]
1679714242.398974,[ 24  54 246 318  55  26  31  26]
1679714242.403431,[ 24  59 274 279  57  26  30  26]
1679714242.442166,[ 24  62 341 262  50  28  30  26]
1679714242.448498,[ 24  57 316 298  50  27  29  26]
1679714242.471699,[ 25  57 309 297  50  27  28  27]
1679714242.478406,[ 24  55 307 299  51  28  24  27]
1679714242.501066,[ 26  57 304 274  44  28  24  25]
1679714242.531718,[ 26  46 270 331  50  26  26  26]
1679714242.538488,[ 27  52 256 290  47  27  28  27]
1679714242.569966,[ 24  52 254 248  43  25  27  25]
1679714242.593568,[ 25  55 256 229  40  26  29  25]
1679714242.605993,[ 23  47 232 270  40  26  30  27]
1679714242.62134,[ 23  63 274 227  33  24  30  24]
1679714242.644961,[ 23  62 282 247  42  25  29  25]
1679714242.660043,[ 25  61 282 246  42  27  31  26]
1679714242.682541,[ 23  59 276 330  47  27  31  26]
1679714242.703506,[ 23  66 347 319  47  27  28  26]
1679714242.718477,[ 23  53 277 306  48  28  25  26]
1679714242.749065,[ 22  48 257 319  41  26  25  27]
1679714242.764952,[ 21  47 257 327  45  27  22  26]
1679714242.778536,[ 22  47 257 260  43  26  20  26]
1679714242.800965,[ 21  51 295 240  41  25  21  25]
1679714242.840732,[ 21  60 311 244  39  27  24  26]
1679714242.841404,[ 21  63 311 211  39  27  22  23]
1679714242.884946,[ 20  64 311 209  32  23  22  24]
1679714242.886439,[ 20  64 310 211  36  25  22  22]
1679714242.898537,[ 22  56 214 213  38  24  23  27]
1679714242.921069,[ 23  47 261 224  38  22  21  25]
1679714242.961293,[ 25  59 287 322  49  24  24  26]
1679714242.962899,[ 25  68 317 351  61  26  23  27]
1679714242.996759,[ 26  68 320 352  57  25  29  29]
1679714243.003524,[ 26  73 317 365  58  25  28  24]
1679714243.042436,[ 24  75 268 367  64  26  27  27]
1679714243.043932,[ 23  66 239 276  55  26  27  28]
1679714243.079918,[ 25  56 197 225  42  26  28  27]
1679714243.081408,[ 23  55 207 225  44  28  25  27]
1679714243.116731,[ 22  59 293 212  43  28  26  28]
1679714243.131793,[ 23  56 284 186  32  29  29  26]
1679714243.13858,[ 22  55 286 248  37  30  29  30]
1679714243.161065,[ 22  56 314 263  38  31  28  28]
1679714243.184954,[ 22  57 314 285  42  29  29  29]
1679714243.205989,[ 22  43 206 268  42  28  29  29]
1679714243.220995,[ 23  41 295 266  43  28  26  30]
1679714243.251792,[ 25  49 303 214  40  29  26  27]
1679714243.266474,[ 23  46 274 196  38  27  29  29]
1679714243.282393,[ 29  46 281 145  31  35  41  36]
1679714243.304963,[ 30  50 291 191  36  38  44  36]
1679714243.326107,[ 31  56 274 193  36  37  45  36]
1679714243.343158,[ 30  53 264 203  34  36  45  34]
1679714243.363554,[ 30  55 281 265  48  36  45  35]
1679714243.394208,[ 25  57 264 259  48  28  32  27]
1679714243.408503,[ 25  55 252 227  43  24  28  28]
1679714243.440435,[ 23  49 220 224  41  24  29  28]
1679714243.478136,[ 23  50 251 233  45  22  27  27]
1679714243.479808,[ 23  52 236 185  37  25  27  24]
1679714243.499087,[ 23  50 250 180  34  25  27  26]
1679714243.516665,[ 23  49 248 182  33  24  24  24]
1679714243.521423,[ 24  50 197 277  44  24  21  22]
1679714243.56736,[ 25  62 287 275  51  25  22  24]
1679714243.569003,[ 27  67 310 270  49  24  21  25]
1679714243.582611,[ 26  69 325 267  51  23  23  22]
1679714243.603471,[ 28  69 336 281  51  22  25  25]
1679714243.62599,[ 26  66 344 246  54  24  25  23]
1679714243.641014,[ 26  66 299 230  47  24  27  23]
1679714243.671754,[ 24  63 302 231  44  25  27  24]
1679714243.685939,[ 23  60 308 248  42  24  26  26]
1679714243.701212,[ 21  60 296 262  48  25  28  25]
1679714243.725555,[ 22  58 289 245  44  23  29  26]
1679714243.746086,[ 22  37 228 252  43  23  27  25]
1679714243.760966,[ 23  31 184 236  45  24  27  25]
1679714243.807464,[ 23  49 186 229  49  24  27  24]
1679714243.80896,[ 24  54 251 301  54  24  27  25]
1679714243.820964,[ 23  61 281 283  56  26  26  26]
1679714243.84505,[ 24  64 292 285  55  26  29  25]
1679714243.874228,[ 23  66 290 359  58  24  29  24]
1679714243.880929,[ 23  65 313 381  58  24  29  25]
1679714243.929661,[ 21  65 268 304  51  26  27  25]
1679714243.930502,[ 21  58 242 293  41  23  27  25]
1679714243.958258,[ 20  57 246 317  44  23  24  26]
1679714243.96353,[ 20  59 294 261  39  24  24  26]
1679714244.001587,[ 21  59 354 227  36  26  24  23]
1679714244.009968,[ 24  59 367 232  33  24  25  24]
1679714244.031106,[ 24  60 365 235  35  25  26  23]
1679714244.047613,[ 26  57 359 259  38  27  27  26]
1679714244.068627,[ 25  55 328 243  41  24  26  28]
1679714244.083496,[ 24  44 183 244  43  25  27  29]
1679714244.107557,[ 22  43 184 243  43  25  26  29]
1679714244.132364,[ 22  48 213 255  42  24  27  30]
1679714244.14512,[ 21  58 250 224  45  25  26  27]
1679714244.190195,[ 21  57 254 210  44  26  28  25]
1679714244.191423,[ 25  56 262 224  43  25  29  26]
1679714244.203468,[ 25  53 234 223  44  25  28  25]
1679714244.226038,[ 25  49 200 200  43  27  30  24]
1679714244.248863,[ 28  67 328 203  38  25  31  26]
1679714244.271686,[ 29  69 327 216  39  25  30  26]
1679714244.286172,[ 27  69 333 200  36  23  29  24]
1679714244.310199,[ 27  69 339 211  38  23  29  25]
1679714244.332272,[ 27  70 377 250  47  26  25  25]
1679714244.346193,[ 24  54 313 210  41  27  26  24]
1679714244.38495,[ 24  54 312 206  39  28  26  24]
1679714244.386389,[ 23  54 300 215  38  28  26  26]
1679714244.405942,[ 25  53 299 227  44  30  27  25]
1679714244.428532,[ 25  52 268 182  36  28  26  26]
1679714244.443669,[ 25  41 174 181  36  25  26  26]
1679714244.466045,[ 24  38 165 189  39  24  25  25]
1679714244.488486,[ 24  46 236 190  38  23  24  26]
1679714244.519206,[ 23  51 242 173  34  23  23  24]
1679714244.541998,[ 24  52 238 201  32  21  23  25]
1679714244.550118,[ 22  57 262 235  39  22  20  23]
1679714244.563481,[ 23  56 260 225  36  22  23  23]
1679714244.586099,[ 23  56 284 267  48  24  26  26]
1679714244.63272,[ 23  58 278 269  52  23  25  27]
1679714244.640703,[ 22  61 270 249  51  24  27  28]
1679714244.646013,[ 23  57 245 228  49  23  31  30]
1679714244.668724,[ 23  56 244 222  49  23  28  31]
1679714244.699039,[ 24  47 180 180  38  21  26  28]
1679714244.707484,[ 23  40 188 180  36  22  26  27]
1679714244.736566,[ 24  45 271 187  35  22  26  25]
1679714244.774024,[ 25  49 288 196  33  23  23  24]
1679714244.791726,[ 25  50 301 291  38  23  25  24]
1679714244.793418,[ 24  54 283 285  44  24  25  23]
1679714244.811004,[ 25  53 270 274  38  24  27  24]
1679714244.827478,[ 26  41 178 275  39  23  28  25]
1679714244.857088,[ 24  36 166 271  39  23  26  24]
1679714244.863534,[ 24  47 236 221  43  24  26  24]
1679714244.885995,[ 25  46 254 211  44  25  25  25]
1679714244.924827,[ 25  46 275 217  44  23  25  26]
1679714244.931016,[ 22  51 276 221  43  24  24  25]
1679714244.94597,[ 22  53 270 216  49  23  26  26]
1679714244.978139,[ 23  43 194 179  42  22  27  28]
1679714244.98354,[ 25  50 262 226  40  25  27  28]
1679714245.021944,[ 25  52 249 268  46  25  26  28]
1679714245.028587,[ 26  55 273 290  60  26  27  30]
1679714245.059256,[ 26  57 285 311  59  26  27  29]
1679714245.065985,[ 26  63 293 314  61  26  28  29]
1679714245.088576,[ 24  56 204 279  58  23  30  33]
1679714245.143216,[ 23  54 200 232  54  24  30  31]
1679714245.144877,[ 26  48 162 206  40  26  31  32]
1679714245.161123,[ 27  55 247 195  36  26  33  32]
1679714245.180101,[ 25  60 288 245  56  29  33  30]
1679714245.194242,[ 26  70 296 251  56  29  32  28]
1679714245.232166,[ 26  72 298 260  55  29  32  28]
1679714245.255124,[ 24  76 326 257  54  27  31  27]
1679714245.256456,[ 25  72 270 236  55  28  28  25]
1679714245.268496,[ 25  61 286 195  37  25  25  25]
1679714245.300842,[ 27  53 289 224  39  23  24  26]
1679714245.305968,[ 26  54 294 222  40  22  23  24]
1679714245.336807,[ 27  49 262 216  40  21  22  29]
1679714245.351026,[ 27  52 286 240  38  20  21  30]
1679714245.381821,[ 26  64 244 245  33  20  21  29]
1679714245.388467,[ 25  62 260 227  32  22  23  27]
1679714245.411024,[ 27  60 256 230  31  21  23  28]
1679714245.433572,[ 23  63 269 289  41  23  25  23]
1679714245.456788,[ 22  64 301 277  40  23  25  23]
1679714245.47169,[ 25  52 280 248  37  23  25  27]
1679714245.493456,[ 26  50 273 245  39  22  24  27]
1679714245.508663,[ 24  49 270 234  41  24  25  28]
1679714245.548793,[ 25  43 262 182  35  24  24  29]
1679714245.55039,[ 26  32 170 171  34  23  25  29]
1679714245.577135,[ 23  40 245 234  49  23  26  26]
1679714245.591143,[ 23  57 272 254  60  25  27  26]
1679714245.6219,[ 22  61 279 261  60  25  25  25]
1679714245.628528,[ 24  61 280 255  60  24  26  29]
1679714245.651017,[ 23  62 293 286  67  26  30  30]
1679714245.666072,[ 24  58 239 235  58  26  29  28]
1679714245.698171,[ 23  51 283 211  48  25  30  29]
1679714245.710969,[ 23  57 297 202  47  25  30  30]
1679714245.742866,[ 21  60 296 233  47  24  28  28]
1679714245.749964,[ 22  62 290 245  44  26  22  25]
1679714245.770964,[ 22  60 283 252  46  26  23  27]
1679714245.786083,[ 21  51 179 240  43  27  25  29]
1679714245.816808,[ 20  39 126 240  41  26  25  29]
1679714245.830982,[ 20  48 233 216  43  30  24  27]
1679714245.847814,[ 22  53 247 161  39  28  24  26]
1679714245.868533,[ 22  52 247 154  38  28  24  26]
1679714245.891024,[ 24  55 260 228  43  25  21  21]
1679714245.913541,[ 24  56 264 243  49  26  21  22]
1679714245.937438,[ 25  60 301 243  46  24  20  22]
1679714245.967333,[ 23  57 283 249  51  27  24  24]
1679714245.968999,[ 20  62 322 264  55  27  24  22]
1679714245.988705,[ 19  63 329 221  52  29  24  24]
1679714246.01267,[ 20  72 340 249  50  28  26  25]
1679714246.057396,[ 19  60 238 246  51  27  28  26]
1679714246.058907,[ 20  67 297 235  43  23  27  25]
1679714246.086856,[ 22  64 261 235  39  24  26  27]
1679714246.093398,[ 24  62 268 234  37  23  26  26]
1679714246.115984,[ 23  49 250 211  35  24  25  25]
1679714246.131016,[ 24  51 250 194  32  23  24  26]
1679714246.170032,[ 26  55 272 263  31  25  23  28]
1679714246.171391,[ 23  61 297 307  46  25  22  27]
1679714246.199878,[ 23  61 303 356  56  26  26  30]
1679714246.213526,[ 24  62 310 350  55  25  26  28]
1679714246.22851,[ 26  61 312 370  58  26  27  28]
1679714246.251134,[ 23  52 310 333  58  24  27  26]
1679714246.27353,[ 23  49 287 278  47  28  28  26]
1679714246.296455,[ 22  48 271 227  42  28  28  22]
1679714246.318888,[ 22  49 289 244  44  29  27  24]
1679714246.341982,[ 19  49 283 215  45  28  28  23]
1679714246.34843,[ 21  49 301 232  45  30  28  25]
1679714246.37252,[ 22  53 322 280  49  24  27  27]
1679714246.393593,[ 23  60 337 269  45  24  25  26]
1679714246.409999,[ 22  58 321 249  41  22  25  27]
1679714246.431057,[ 22  58 322 248  37  24  22  26]
1679714246.461877,[ 21  50 225 226  35  22  23  27]
1679714246.492588,[ 20  57 309 173  30  24  23  27]
1679714246.493893,[ 20  57 291 195  28  22  25  28]
1679714246.530285,[ 24  58 296 203  31  24  27  29]
1679714246.531419,[ 26  57 294 215  30  24  27  31]
1679714246.55384,[ 28  57 291 233  35  24  27  30]
1679714246.583356,[ 29  47 250 237  35  23  26  30]
1679714246.619878,[ 30  40 241 212  36  24  25  28]
1679714246.627128,[ 28  40 230 195  34  24  25  29]
1679714246.651315,[ 27  43 234 186  33  23  26  27]
1679714246.652979,[ 23  46 237 211  38  25  26  26]
1679714246.67101,[ 24  40 158 216  37  25  27  26]
1679714246.693551,[ 24  37 147 216  38  25  27  27]
1679714246.716219,[ 23  38 149 222  40  24  27  25]
1679714246.732489,[ 24  55 265 221  41  26  30  26]
1679714246.769932,[ 23  52 269 215  36  25  27  24]
1679714246.771406,[ 22  51 253 202  33  24  28  23]
1679714246.808358,[ 22  58 272 212  35  24  27  23]
1679714246.813541,[ 23  59 277 225  33  25  29  24]
1679714246.828516,[ 23  55 265 270  40  27  26  24]
1679714246.859304,[ 22  56 268 245  40  28  26  24]
1679714246.873861,[ 22  57 284 240  41  28  26  28]
1679714246.904004,[ 22  52 296 245  40  27  27  28]
1679714246.920362,[ 21  50 295 242  42  29  23  28]
1679714246.933635,[ 22  39 251 209  35  28  22  28]
1679714246.97162,[ 25  42 273 218  37  26  23  30]
1679714246.980825,[ 24  43 301 227  36  27  21  27]
1679714247.001733,[ 23  40 283 216  35  26  21  27]
1679714247.017591,[ 23  42 279 217  39  25  21  25]
1679714247.04812,[ 21  39 240 213  41  24  21  24]
1679714247.061714,[ 20  38 205 191  39  26  20  24]
1679714247.084233,[ 20  39 128 192  38  24  20  23]
1679714247.091007,[ 22  40  99 176  39  26  19  22]
1679714247.123143,[ 23  50 250 198  35  25  20  25]
1679714247.176027,[ 22  54 265 209  36  26  21  26]
1679714247.177599,[ 26  50 269 221  35  25  22  28]
1679714247.181678,[ 26  47 273 218  39  27  26  29]
1679714247.204216,[ 26  51 309 267  40  26  27  29]
1679714247.210933,[ 28  49 299 244  40  25  27  26]
1679714247.243134,[ 29  45 294 222  37  24  27  25]
1679714247.256548,[ 27  45 287 246  39  24  30  25]
1679714247.294992,[ 27  45 283 254  37  21  27  24]
1679714247.296446,[ 28  44 254 212  38  22  26  23]
1679714247.324835,[ 26  39 139 212  35  22  26  24]
1679714247.330975,[ 26  54 291 228  38  22  25  30]
1679714247.363167,[ 25  57 307 235  41  24  20  27]
1679714247.399942,[ 25  57 310 234  42  25  25  28]
1679714247.401392,[ 25  57 309 241  43  24  27  30]
1679714247.414896,[ 26  74 397 247  44  24  29  31]
1679714247.445672,[ 25  67 306 275  51  27  29  25]
1679714247.451743,[ 25  67 305 250  49  26  30  26]
1679714247.483189,[ 25  67 305 246  51  28  27  25]
1679714247.519966,[ 24  66 301 232  49  28  25  24]
1679714247.5214,[ 24  45 225 238  50  28  25  24]
1679714247.533473,[ 24  42 227 203  42  26  25  23]
1679714247.565641,[ 24  40 206 191  40  24  26  26]
1679714247.570938,[ 24  39 203 182  37  22  27  24]
1679714247.603128,[ 24  45 225 263  45  24  29  25]
1679714247.616322,[ 24  51 240 297  53  24  27  25]
1679714247.631167,[ 24  56 270 305  53  23  26  26]
1679714247.654992,[ 23  57 272 342  55  24  24  26]
1679714247.676342,[ 24  58 280 354  57  26  23  26]
1679714247.69246,[ 25  55 294 319  56  24  21  24]
1679714247.714925,[ 25  58 285 278  48  26  21  25]
1679714247.736426,[ 24  54 264 264  46  27  22  26]
1679714247.759974,[ 25  55 268 215  42  28  25  25]
1679714247.797458,[ 23  58 275 245  49  27  23  24]
1679714247.799211,[ 22  55 234 252  41  28  24  25]
1679714247.811008,[ 24  56 252 262  42  26  23  22]
1679714247.841423,[ 24  65 244 304  42  27  22  22]
1679714247.864614,[ 24  66 237 311  44  28  21  24]
1679714247.878503,[ 25  63 223 272  35  26  22  26]
1679714247.893539,[ 25  68 330 248  35  26  22  25]
1679714247.917487,[ 24  62 311 253  36  27  24  25]
1679714247.938566,[ 26  51 312 237  36  24  24  26]
1679714247.962515,[ 25  48 315 236  35  23  23  25]
1679714247.9919,[ 24  49 322 237  37  24  24  24]
1679714248.00814,[ 24  56 319 266  42  26  24  25]
1679714248.037391,[ 23  50 286 256  42  25  23  26]
1679714248.038942,[ 23  50 279 212  40  25  22  25]
1679714248.059289,[ 23  54 279 203  41  24  25  25]
1679714248.074969,[ 27  65 355 275  51  27  25  26]
1679714248.104655,[ 27  60 341 253  47  25  23  26]
1679714248.128252,[ 27  60 346 249  48  25  24  27]
1679714248.13344,[ 29  62 352 285  52  25  25  28]
1679714248.156172,[ 29  65 364 311  54  23  23  27]
1679714248.194922,[ 27  55 319 254  43  20  23  27]
1679714248.196565,[ 28  61 307 259  45  19  22  25]
1679714248.224786,[ 28  63 308 260  44  21  22  23]
1679714248.256573,[ 26  64 304 227  39  23  24  22]
1679714248.269236,[ 25  63 287 225  37  24  22  23]
1679714248.275999,[ 22  63 271 226  35  25  23  22]
1679714248.299404,[ 23  51 185 224  36  24  24  23]
1679714248.315014,[ 24  54 224 214  34  22  24  23]
1679714248.351957,[ 24  57 229 263  42  21  22  22]
1679714248.366732,[ 24  56 234 248  42  20  23  23]
1679714248.373556,[ 24  54 211 250  41  19  23  22]
1679714248.404278,[ 25  58 278 241  40  20  22  23]
1679714248.418762,[ 24  59 262 255  47  24  22  23]
1679714248.435021,[ 24  53 256 220  48  26  23  23]
1679714248.47229,[ 24  49 264 195  48  26  22  22]
1679714248.478553,[ 26  49 263 213  49  27  26  26]
1679714248.493564,[ 25  49 260 261  51  27  25  25]
1679714248.516046,[ 25  46 281 266  49  27  27  25]
1679714248.546828,[ 25  49 292 279  41  24  26  27]
1679714248.553495,[ 24  53 288 286  40  24  27  26]
1679714248.591707,[ 23  54 307 317  47  26  25  23]
1679714248.606891,[ 24  63 359 280  45  24  26  24]
1679714248.613421,[ 23  65 328 285  43  24  23  25]
1679714248.636109,[ 23  67 323 249  41  26  25  25]
1679714248.674772,[ 24  64 315 252  39  26  27  27]
1679714248.680983,[ 23  68 306 209  36  25  26  26]
1679714248.713167,[ 23  53 190 196  34  26  28  27]
1679714248.718476,[ 25  45 179 157  33  25  28  29]
1679714248.750692,[ 23  48 231 178  35  24  26  28]
1679714248.756016,[ 22  54 247 211  42  25  23  25]
1679714248.786706,[ 23  51 235 195  38  24  25  27]
1679714248.801095,[ 22  52 222 200  39  24  23  28]
1679714248.824933,[ 21  66 305 244  41  24  24  26]
1679714248.838533,[ 20  69 299 297  55  28  23  27]
1679714248.86931,[ 22  61 302 281  49  27  25  31]
1679714248.883717,[ 22  60 310 300  51  26  24  31]
1679714248.908012,[ 23  63 322 309  55  26  23  29]
1679714248.922556,[ 23  49 246 303  54  25  24  28]
1679714248.945072,[ 23  33 192 239  40  21  25  31]
1679714248.95867,[ 22  50 264 219  41  22  27  30]
1679714248.98114,[ 23  52 259 192  38  23  26  29]
1679714248.996058,[ 22  50 259 197  33  22  25  30]
1679714249.028506,[ 22  52 265 202  32  22  25  31]
1679714249.04137,[ 23  61 286 230  42  25  27  30]
1679714249.071705,[ 24  61 286 249  45  23  24  28]
1679714249.078759,[ 22  64 307 253  51  22  24  28]
1679714249.101136,[ 22  63 298 251  51  22  27  27]
1679714249.11747,[ 23  59 294 218  50  24  26  25]
1679714249.139166,[ 23  51 273 184  42  20  23  24]
1679714249.161013,[ 21  35 181 164  39  22  25  25]
1679714249.184997,[ 23  26 122 138  30  24  25  27]
1679714249.198434,[ 24  30 111 156  36  25  24  27]
1679714249.221041,[ 24  55 265 263  62  28  27  31]
1679714249.236038,[ 26  59 284 303  68  29  30  31]
1679714249.259952,[ 27  61 290 309  71  28  28  32]
1679714249.281568,[ 27  60 333 328  75  30  29  33]
1679714249.305544,[ 27  68 409 311  73  28  31  34]
1679714249.318474,[ 26  53 332 230  54  25  31  31]
1679714249.341261,[ 24  50 326 184  47  24  28  29]
1679714249.357426,[ 22  55 331 242  52  26  29  25]
1679714249.378514,[ 22  56 291 242  46  23  28  25]
1679714249.401076,[ 21  50 211 254  44  22  26  26]
1679714249.424971,[ 23  53 247 255  46  26  23  27]
1679714249.462285,[ 23  55 246 314  51  28  27  26]
1679714249.469178,[ 23  47 245 272  42  26  24  26]
1679714249.479983,[ 23  57 268 253  43  27  24  26]
1679714249.508149,[ 23  61 297 238  45  27  23  24]
1679714249.520994,[ 23  58 280 235  40  25  24  25]
1679714249.545042,[ 25  58 280 225  52  24  23  27]
1679714249.558425,[ 25  61 283 226  53  26  23  28]
1679714249.582419,[ 26  52 266 231  52  27  26  29]
1679714249.596155,[ 27  53 309 240  49  27  27  30]
1679714249.635602,[ 26  56 312 266  57  27  27  29]
1679714249.64096,[ 24  54 312 200  39  26  29  27]
1679714249.66377,[ 25  52 306 188  38  25  30  26]
1679714249.678451,[ 23  52 326 222  48  26  27  25]
1679714249.702793,[ 23  51 267 225  53  26  27  24]
1679714249.717427,[ 23  55 284 195  48  26  26  22]
1679714249.73866,[ 25  54 277 201  50  28  24  25]
1679714249.761161,[ 24  55 270 197  51  27  24  25]
1679714249.783601,[ 24  53 237 169  42  26  25  24]
1679714249.798457,[ 26  47 254 242  37  25  24  26]
1679714249.822656,[ 27  43 282 253  40  25  23  27]
1679714249.851859,[ 27  48 294 272  40  22  23  28]
1679714249.858558,[ 29  47 305 328  51  25  25  28]
1679714249.913234,[ 29  48 330 375  63  26  26  30]
1679714249.914665,[ 28  53 332 340  66  28  27  29]
1679714249.942463,[ 27  62 305 333  64  28  29  29]
1679714249.944431,[ 27  63 300 338  67  29  28  27]
1679714249.963531,[ 26  67 288 288  58  26  26  27]
1679714249.97871,[ 25  66 303 222  44  23  27  27]
1679714250.016827,[ 25  60 246 193  39  24  28  29]
1679714250.031786,[ 26  53 249 192  35  22  27  30]
1679714250.038585,[ 24  52 277 152  29  23  27  29]
1679714250.061248,[ 24  53 299 212  35  24  28  28]
1679714250.100204,[ 24  55 295 204  34  25  25  26]
1679714250.101576,[ 24  59 305 221  37  24  22  25]
1679714250.138392,[ 23  64 332 254  41  24  25  23]
1679714250.175642,[ 24  66 332 283  43  25  28  26]
1679714250.177221,[ 24  65 317 264  41  26  30  27]
1679714250.189138,[ 23  62 291 272  42  27  30  27]
1679714250.211732,[ 25  58 278 261  40  26  30  26]
1679714250.218412,[ 25  45 208 221  35  26  27  27]
1679714250.25668,[ 24  39 202 202  33  23  25  27]
1679714250.263903,[ 24  45 243 208  39  26  25  25]
1679714250.294427,[ 24  49 265 197  37  26  24  26]
1679714250.301257,[ 22  49 278 198  39  27  25  26]
1679714250.333267,[ 22  47 275 252  50  29  27  28]
1679714250.338472,[ 22  62 343 275  59  29  25  26]
1679714250.376809,[ 23  59 331 256  55  26  25  28]
1679714250.383473,[ 24  57 311 260  55  25  26  29]
1679714250.415707,[ 26  56 304 275  56  26  27  29]
1679714250.421089,[ 25  57 301 232  49  25  25  26]
1679714250.451769,[ 26  35 181 197  36  25  28  25]
1679714250.474257,[ 25  27 138 193  34  27  28  26]
1679714250.489357,[ 25  48 291 177  36  28  27  23]
1679714250.503486,[ 21  54 298 226  34  25  25  23]
1679714250.534224,[ 22  60 317 227  35  26  26  23]
1679714250.541338,[ 23  62 324 213  35  24  25  26]
1679714250.571762,[ 25  66 330 245  44  25  24  29]
1679714250.578538,[ 24  61 289 251  43  23  25  31]
1679714250.625577,[ 24  61 318 219  40  22  27  32]
1679714250.631733,[ 24  59 311 240  40  22  27  31]
1679714250.638485,[ 23  64 304 271  42  24  24  29]
1679714250.661122,[ 22  71 347 278  38  23  23  25]
1679714250.693134,[ 24  73 309 326  50  26  23  21]
1679714250.706148,[ 24  70 269 310  51  29  22  23]
1679714250.721228,[ 24  67 255 293  50  28  23  25]
1679714250.743906,[ 26  78 372 304  51  28  25  26]
1679714250.76595,[ 26  73 331 320  54  32  26  28]
1679714250.781486,[ 25  64 310 275  44  30  26  29]
1679714250.813233,[ 26  76 371 302  44  28  25  27]
1679714250.834679,[ 27  79 387 303  48  27  23  25]
1679714250.848634,[ 24  62 317 271  45  26  23  24]
1679714250.863552,[ 22  57 322 224  37  24  23  24]
1679714250.886036,[ 22  69 326 321  56  25  22  23]
1679714250.901045,[ 23  68 321 345  57  27  22  23]
1679714250.931551,[ 23  68 325 364  57  28  21  23]
1679714250.962217,[ 23  69 287 360  58  27  23  25]
1679714250.968797,[ 22  69 286 349  56  25  23  25]
1679714250.983577,[ 25  54 267 270  39  22  23  25]
1679714251.006225,[ 23  45 223 202  36  21  22  24]
1679714251.022462,[ 23  51 256 171  32  22  26  25]
1679714251.043594,[ 23  53 266 223  37  24  26  25]
1679714251.089956,[ 25  58 262 235  39  22  26  25]
1679714251.091595,[ 22  59 261 238  42  26  28  25]
1679714251.105403,[ 24  65 383 241  41  25  29  25]
1679714251.12613,[ 23  60 356 243  41  23  27  26]
1679714251.142483,[ 24  54 352 226  44  24  28  25]
1679714251.165049,[ 23  57 374 232  50  28  27  24]
1679714251.194225,[ 23  62 419 243  49  26  26  25]
1679714251.208554,[ 21  55 302 266  50  27  26  27]
1679714251.223893,[ 20  55 285 310  55  28  27  26]
1679714251.247513,[ 20  66 301 286  53  26  26  25]
1679714251.262745,[ 22  74 377 336  49  24  26  27]
1679714251.283459,[ 24  71 333 324  51  25  24  27]
1679714251.305983,[ 24  72 315 333  53  28  23  26]
1679714251.323137,[ 24  72 318 290  48  26  21  25]
1679714251.343487,[ 24  63 298 290  43  27  23  24]
1679714251.368105,[ 22  46 175 250  44  27  23  23]
1679714251.382458,[ 21  53 214 241  40  26  24  23]
1679714251.403469,[ 22  60 297 203  38  23  26  25]
1679714251.442131,[ 22  61 316 206  39  25  28  26]
1679714251.44895,[ 22  68 321 273  43  25  28  28]
1679714251.464946,[ 25  79 357 265  44  22  30  29]
1679714251.486057,[ 25  75 335 294  46  25  33  30]
1679714251.501153,[ 25  64 275 295  48  23  33  29]
1679714251.525114,[ 25  63 278 297  50  24  32  29]
1679714251.546375,[ 26  54 290 231  46  25  31  30]
1679714251.561311,[ 23  37 215 199  40  27  28  28]
1679714251.591204,[ 22  47 289 138  38  25  26  31]
1679714251.607576,[ 20  53 289 170  31  25  26  31]
1679714251.646566,[ 23  52 264 177  32  26  25  31]
1679714251.647926,[ 23  55 250 183  34  24  22  31]
1679714251.683861,[ 24  58 259 200  37  23  22  31]
1679714251.685491,[ 22  48 169 253  39  23  20  28]
1679714251.704137,[ 26  41 146 235  43  24  19  27]
1679714251.727465,[ 26  53 279 234  40  22  23  29]
1679714251.785488,[ 27  54 291 271  43  24  23  29]
1679714251.786397,[ 27  51 288 260  43  24  23  28]
1679714251.802084,[ 29  50 296 245  43  25  25  26]
1679714251.808816,[ 27  50 301 238  41  26  25  27]
1679714251.83923,[ 25  60 277 250  40  26  24  25]
1679714251.89376,[ 25  64 271 222  35  24  25  22]
1679714251.895649,[ 25  64 269 254  36  24  30  23]
1679714251.923327,[ 26  67 286 231  33  25  31  26]
1679714251.924737,[ 25  68 313 252  35  24  33  28]
1679714251.92871,[ 24  62 284 239  36  24  33  27]
1679714251.959496,[ 25  59 276 235  37  25  33  27]
1679714251.966076,[ 26  56 281 219  37  25  31  29]
1679714252.02749,[ 24  53 252 225  37  24  28  25]
1679714252.043119,[ 26  51 242 214  38  24  27  25]
1679714252.044648,[ 26  35 182 225  41  25  25  25]
1679714252.048517,[ 25  33 177 254  41  24  26  28]
1679714252.072543,[ 24  49 249 240  38  26  25  28]
1679714252.086043,[ 25  51 259 237  38  27  27  30]
1679714252.16372,[ 22  57 250 263  47  29  27  28]
1679714252.165257,[ 24  57 254 274  45  28  28  28]
1679714252.16917,[ 25  62 298 239  44  27  26  28]
1679714252.169896,[ 24  71 316 287  47  26  26  26]
1679714252.199447,[ 25  71 316 302  49  25  24  26]
1679714252.205929,[ 26  66 311 270  39  21  21  25]
1679714252.237914,[ 28  65 308 235  35  23  23  26]
1679714252.244951,[ 26  60 264 240  37  25  25  25]
1679714252.28181,[ 25  37 164 174  32  25  27  25]
1679714252.320756,[ 24  34 145 151  32  25  29  26]
1679714252.322141,[ 24  48 227 217  31  26  30  28]
1679714252.325971,[ 21  52 249 214  32  26  27  29]
1679714252.35672,[ 22  50 274 218  30  24  27  28]
1679714252.363421,[ 24  55 274 243  40  24  28  29]
1679714252.394555,[ 25  60 279 259  41  23  28  30]
1679714252.408835,[ 24  48 207 204  39  22  30  31]
1679714252.438976,[ 24  45 174 202  40  20  30  30]
1679714252.447614,[ 25  53 218 210  41  20  29  29]
1679714252.476867,[ 23  64 336 280  49  20  27  29]
1679714252.483443,[ 26  71 362 265  48  23  26  26]
1679714252.52244,[ 28  72 362 273  48  22  25  26]
1679714252.528505,[ 29  73 369 279  49  24  27  27]
1679714252.56766,[ 28  69 348 281  54  27  26  27]
1679714252.569268,[ 29  65 312 220  40  27  26  29]
1679714252.606738,[ 26  54 284 216  41  25  27  29]
1679714252.608123,[ 26  58 288 209  42  26  28  30]
1679714252.627486,[ 25  60 294 229  43  25  26  27]
1679714252.648602,[ 27  65 345 257  41  23  27  29]
1679714252.672514,[ 26  57 287 228  40  22  24  26]
1679714252.685963,[ 27  56 287 214  36  24  25  27]
1679714252.70852,[ 27  51 281 208  36  23  23  28]
1679714252.731142,[ 27  49 270 184  31  24  26  31]
1679714252.754974,[ 26  43 171 202  34  22  26  30]
1679714252.797229,[ 27  61 282 209  33  25  27  31]
1679714252.797686,[ 26  61 279 224  34  23  25  29]
1679714252.807457,[ 25  62 307 243  33  23  26  26]
1679714252.830042,[ 24  65 310 270  48  25  24  25]
1679714252.85101,[ 22  62 309 218  45  25  26  25]
1679714252.86606,[ 24  42 196 232  47  22  26  24]
1679714252.88859,[ 26  64 294 226  47  25  29  24]
1679714252.912488,[ 26  66 271 222  49  26  29  24]
1679714252.933585,[ 27  63 266 220  41  24  29  22]
1679714252.964215,[ 27  64 277 229  39  24  27  21]
1679714252.979231,[ 24  62 274 237  37  26  27  25]
1679714252.996672,[ 23  39 165 242  40  26  26  27]
1679714253.008523,[ 22  44 264 261  44  28  27  27]
1679714253.031024,[ 22  44 276 262  42  27  27  30]
1679714253.046044,[ 25  47 274 257  42  29  29  32]
1679714253.070001,[ 27  52 298 250  43  29  29  31]
1679714253.098964,[ 28  55 358 285  44  30  27  30]
1679714253.115023,[ 28  50 289 274  38  27  25  28]
1679714253.136692,[ 27  50 315 246  37  28  27  26]
1679714253.151154,[ 25  46 309 270  37  26  24  26]
1679714253.189973,[ 24  43 287 258  41  28  23  24]
1679714253.191356,[ 23  57 271 221  44  24  25  25]
1679714253.211967,[ 22  59 288 259  51  24  25  25]
1679714253.226133,[ 22  57 250 265  52  25  23  24]
1679714253.265657,[ 27  68 295 243  53  25  23  22]
1679714253.271174,[ 27  67 319 269  53  23  24  24]
1679714253.287566,[ 27  58 312 280  51  24  22  23]
1679714253.309997,[ 26  58 300 258  53  26  24  24]
1679714253.347395,[ 27  72 380 284  55  25  26  26]
1679714253.348905,[ 22  63 360 279  56  26  26  27]
1679714253.384258,[ 20  63 344 260  55  27  26  25]
1679714253.390952,[ 23  60 298 290  57  26  25  26]
1679714253.406139,[ 24  53 305 271  51  24  25  27]
1679714253.430058,[ 22  41 278 273  47  23  23  24]
1679714253.467459,[ 24  49 269 270  44  22  22  24]
1679714253.46909,[ 24  47 267 265  41  22  24  25]
1679714253.50447,[ 24  51 295 220  30  22  24  24]
1679714253.519139,[ 23  68 365 232  28  23  24  23]
1679714253.52607,[ 26  65 313 193  30  26  24  23]
1679714253.581258,[ 24  69 313 208  30  26  23  23]
1679714253.587373,[ 26  71 312 202  29  27  24  27]
1679714253.588985,[ 26  68 286 192  30  26  24  26]
1679714253.630085,[ 25  52 170 240  37  25  23  27]
1679714253.631212,[ 24  58 231 247  37  23  23  30]
1679714253.662253,[ 26  48 218 250  37  23  26  30]
1679714253.668538,[ 24  47 230 255  41  24  24  26]
1679714253.691166,[ 23  47 229 272  41  24  25  28]
1679714253.713568,[ 26  47 255 218  34  24  24  28]
1679714253.744274,[ 26  48 254 236  43  28  27  27]
1679714253.751165,[ 25  49 258 237  42  27  24  28]
1679714253.789753,[ 23  47 254 238  39  24  24  27]
1679714253.795988,[ 27  51 265 232  40  26  26  28]
1679714253.812575,[ 25  50 272 226  46  27  26  27]
1679714253.834174,[ 25  49 207 196  36  22  24  26]
1679714253.849986,[ 26  46 194 177  37  24  26  26]
1679714253.870976,[ 27  47 192 200  40  25  26  25]
1679714253.901746,[ 24  58 299 232  44  23  26  26]
1679714253.91615,[ 25  58 290 236  43  22  26  29]
1679714253.940877,[ 24  51 295 233  43  23  27  28]
1679714253.953523,[ 24  52 300 275  44  26  28  30]
1679714253.969975,[ 25  60 408 269  43  27  29  31]
1679714253.99107,[ 24  51 336 223  42  27  29  28]
1679714254.021868,[ 24  50 337 212  37  27  30  27]
1679714254.028624,[ 24  52 350 236  40  26  29  27]
1679714254.074893,[ 23  50 351 203  37  21  27  27]
1679714254.076409,[ 23  56 352 177  39  22  26  26]
1679714254.096045,[ 24  64 395 201  36  23  26  27]
1679714254.112502,[ 24  66 388 198  36  24  24  25]
1679714254.141868,[ 23  64 376 213  38  24  23  27]
1679714254.172629,[ 23  65 373 200  42  27  23  24]
1679714254.173977,[ 26  64 347 214  45  28  24  26]
1679714254.194973,[ 25  55 307 219  46  28  23  24]
1679714254.208573,[ 25  58 304 265  48  28  23  25]
1679714254.233176,[ 27  60 302 266  51  29  26  23]
1679714254.277376,[ 25  59 300 257  47  27  26  24]
1679714254.278897,[ 21  44 175 249  40  24  27  26]
1679714254.29936,[ 24  52 212 285  56  28  29  28]
1679714254.31357,[ 24  61 299 254  56  29  29  30]
1679714254.337515,[ 25  61 304 230  50  26  27  30]
1679714254.351007,[ 25  64 306 235  52  27  27  29]
1679714254.383183,[ 26  64 313 285  55  27  27  28]
1679714254.388495,[ 23  63 345 290  45  24  24  28]
1679714254.419479,[ 21  56 297 296  45  22  25  27]
1679714254.433543,[ 21  56 303 307  47  23  25  28]
1679714254.464322,[ 24  61 358 310  49  25  23  29]
1679714254.471016,[ 24  64 370 276  50  26  21  29]
1679714254.501738,[ 26  55 310 205  42  24  24  27]
1679714254.524576,[ 27  50 292 250  44  24  24  25]
1679714254.538519,[ 27  49 286 279  53  26  25  24]
1679714254.553586,[ 25  40 238 321  57  26  29  25]
1679714254.58493,[ 25  60 296 310  54  26  29  27]
1679714254.598585,[ 21  61 292 314  53  28  29  26]
1679714254.615119,[ 20  61 288 269  53  28  27  25]
1679714254.636046,[ 21  61 295 233  42  25  29  26]
1679714254.667013,[ 22  61 279 171  32  27  27  24]
1679714254.6975,[ 23  45 254 187  30  27  29  24]
1679714254.699057,[ 23  45 260 306  41  28  28  26]
1679714254.718745,[ 25  47 272 335  37  26  31  28]
1679714254.735037,[ 24  46 268 322  36  27  27  25]
1679714254.764963,[ 26  61 325 357  35  24  27  25]
1679714254.778624,[ 25  66 316 352  40  26  23  23]
1679714254.793535,[ 26  73 330 265  32  24  25  26]
1679714254.824209,[ 26  76 331 234  35  28  21  25]
1679714254.830928,[ 27  75 324 291  42  27  23  28]
1679714254.855301,[ 25  70 327 252  47  28  20  27]
1679714254.892302,[ 27  64 305 244  44  27  25  30]
1679714254.906796,[ 28  53 293 239  43  28  25  28]
1679714254.913603,[ 27  54 302 284  46  25  27  28]
1679714254.936351,[ 27  58 310 270  44  29  25  27]
1679714254.951021,[ 27  61 304 290  40  28  28  27]
1679714254.975014,[ 25  62 302 295  40  27  28  26]
1679714255.012439,[ 24  61 310 326  44  27  27  26]
1679714255.014069,[ 23  62 278 295  39  26  27  25]
1679714255.065986,[ 22  60 266 257  34  21  28  24]
1679714255.067194,[ 23  48 185 226  32  22  29  27]
1679714255.086839,[ 23  50 213 226  35  25  26  26]
1679714255.093673,[ 24  57 232 166  34  23  26  25]
1679714255.124758,[ 24  51 248 206  33  23  26  26]
1679714255.132577,[ 25  50 274 216  41  26  25  26]
1679714255.153543,[ 25  53 276 254  49  25  24  23]
1679714255.176017,[ 24  64 322 263  48  23  25  26]
1679714255.19871,[ 24  61 308 281  46  25  24  26]
1679714255.214968,[ 22  60 305 261  48  25  24  26]
1679714255.253147,[ 22  59 300 256  44  23  24  31]
1679714255.255031,[ 21  57 297 222  35  25  23  31]
1679714255.289356,[ 22  38 198 241  37  27  25  29]
1679714255.296054,[ 20  40 166 220  32  25  24  31]
1679714255.310973,[ 24  50 214 210  38  28  25  29]
1679714255.343633,[ 23  52 208 214  38  29  26  26]
1679714255.372538,[ 24  50 207 218  38  26  25  26]
1679714255.374109,[ 23  49 211 209  41  25  23  25]
1679714255.409261,[ 26  58 297 246  55  27  24  24]
1679714255.424332,[ 24  53 267 244  49  24  24  27]
1679714255.430998,[ 25  52 261 265  52  23  23  26]
1679714255.455562,[ 28  52 282 253  52  25  26  26]
1679714255.500193,[ 28  56 274 265  49  25  26  29]
1679714255.501422,[ 28  39 174 240  37  23  27  30]
1679714255.529318,[ 28  49 246 236  40  22  25  28]
1679714255.53597,[ 27  52 249 226  36  24  25  27]
1679714255.582919,[ 23  52 233 243  36  24  25  28]
1679714255.584099,[ 24  47 232 204  37  25  26  25]
1679714255.605729,[ 23  50 246 200  39  25  25  23]
1679714255.618574,[ 23  44 275 221  42  27  29  23]
1679714255.649583,[ 23  47 290 207  46  27  29  22]
1679714255.656096,[ 25  47 291 224  48  28  26  21]
1679714255.678805,[ 23  48 305 260  48  27  26  24]
1679714255.693472,[ 23  57 382 282  45  27  27  24]
1679714255.717626,[ 21  54 318 265  45  25  23  25]
1679714255.738501,[ 22  48 314 277  41  24  24  27]
1679714255.761513,[ 22  53 317 288  47  23  26  26]
1679714255.777692,[ 25  54 307 259  43  23  25  26]
1679714255.798455,[ 27  44 212 232  45  26  24  27]
1679714255.821402,[ 28  48 265 246  42  28  25  26]
1679714255.844968,[ 26  50 253 223  41  28  24  26]
1679714255.858552,[ 27  46 245 179  31  27  23  26]
1679714255.8826,[ 27  53 271 259  36  27  25  27]
1679714255.897483,[ 23  64 311 272  47  25  24  25]
1679714255.927761,[ 24  67 307 253  45  22  23  26]
1679714255.948554,[ 26  65 300 255  45  21  24  24]
1679714255.963519,[ 25  68 326 344  58  22  24  25]
1679714255.978587,[ 23  65 314 288  58  24  22  22]
1679714256.002502,[ 26  54 325 280  50  24  23  28]
1679714256.025596,[ 26  44 275 286  49  24  26  29]
1679714256.047535,[ 26  45 302 354  57  28  25  30]
1679714256.068967,[ 26  46 283 289  45  27  24  28]
1679714256.085279,[ 28  64 344 302  44  28  26  30]
1679714256.130532,[ 25  67 312 331  49  28  24  25]
1679714256.139355,[ 25  65 318 331  50  28  24  27]
1679714256.141729,[ 25  71 299 273  45  26  22  27]
1679714256.174533,[ 28  76 312 334  48  27  27  29]
1679714256.181492,[ 29  66 270 330  54  26  26  27]
1679714256.198516,[ 35  63 264 301  49  25  28  30]
1679714256.226731,[ 34  66 265 315  50  26  27  29]
1679714256.241503,[ 36  63 262 309  47  26  29  30]
1679714256.261306,[ 33  67 308 222  43  26  24  29]
1679714256.280393,[ 31  61 297 220  31  24  24  28]
1679714256.309159,[ 26  62 283 226  30  25  23  27]
1679714256.333217,[ 26  72 314 229  30  24  23  24]
1679714256.338783,[ 23  77 385 247  32  26  24  23]
1679714256.361045,[ 23  65 327 257  31  27  26  27]
1679714256.377972,[ 23  67 314 271  41  27  27  26]
1679714256.398515,[ 20  69 300 273  41  29  27  25]
1679714256.437656,[ 21  67 324 244  42  29  31  26]
1679714256.438976,[ 23  59 277 314  50  27  28  26]
1679714256.466452,[ 25  62 278 304  50  26  28  23]
1679714256.481521,[ 23  58 273 296  44  27  27  24]
1679714256.507421,[ 23  53 280 286  43  26  28  26]
1679714256.518759,[ 23  49 249 333  49  26  25  28]
1679714256.542097,[ 20  51 204 239  38  25  25  26]
1679714256.557522,[ 18  49 207 237  38  25  26  27]
1679714256.578779,[ 19  56 213 239  39  23  26  26]
1679714256.602538,[ 19  64 278 246  46  24  24  24]
1679714256.631914,[ 23  72 299 210  40  24  23  24]
1679714256.641057,[ 23  70 311 232  42  24  24  25]
1679714256.66148,[ 24  72 313 241  46  26  24  25]
1679714256.677617,[ 24  72 335 247  45  27  24  26]
1679714256.699371,[ 26  73 343 258  40  26  26  28]
1679714256.721046,[ 24  63 309 247  40  28  26  29]
1679714256.745086,[ 26  62 293 237  39  30  26  29]
1679714256.758792,[ 25  61 302 298  40  28  24  29]
1679714256.781106,[ 27  65 309 280  40  29  25  30]
1679714256.797533,[ 24  64 316 283  40  29  24  30]
1679714256.843803,[ 25  64 316 280  39  25  24  26]
1679714256.845447,[ 26  62 354 283  43  24  24  29]
1679714256.858116,[ 26  70 397 238  46  25  23  29]
1679714256.880239,[ 24  64 370 274  50  25  23  27]
1679714256.901105,[ 26  54 315 293  51  23  23  27]
1679714256.9175,[ 26  51 314 324  56  27  24  27]
1679714256.946037,[ 24  53 288 319  53  26  25  25]
1679714256.961032,[ 22  51 278 322  58  26  27  25]
1679714256.992501,[ 25  50 297 299  54  25  27  27]
1679714257.007524,[ 24  54 286 259  51  27  25  25]
1679714257.037431,[ 25  55 270 225  44  25  24  27]
1679714257.038905,[ 25  55 248 244  48  25  24  26]
1679714257.07573,[ 25  55 235 230  35  25  24  26]
1679714257.081278,[ 23  58 236 216  38  25  23  25]
1679714257.097544,[ 22  58 248 247  42  25  23  28]
1679714257.120008,[ 23  55 263 234  47  28  25  28]
1679714257.142595,[ 25  55 268 237  46  28  25  30]
1679714257.163516,[ 26  53 280 237  47  27  23  31]
1679714257.180116,[ 26  52 292 239  46  27  25  31]
1679714257.201073,[ 25  52 292 217  44  27  25  29]
1679714257.217803,[ 22  54 283 253  45  25  25  28]
1679714257.240178,[ 21  72 353 240  42  25  24  25]
1679714257.261415,[ 20  66 311 241  39  27  26  23]
1679714257.283484,[ 21  62 279 242  39  25  26  23]
1679714257.299971,[ 22  63 273 256  38  23  27  24]
1679714257.321025,[ 25  61 275 219  33  23  26  24]
1679714257.343684,[ 23  55 294 263  40  24  26  27]
1679714257.359978,[ 23  55 291 240  39  22  26  26]
1679714257.388611,[ 25  59 290 293  43  25  25  27]
1679714257.445799,[ 25  64 306 332  47  26  24  26]
1679714257.447002,[ 26  78 380 340  48  27  23  29]
1679714257.448705,[ 28  68 310 321  43  26  22  27]
1679714257.471066,[ 29  72 305 361  45  26  23  26]
1679714257.487399,[ 26  70 319 325  43  25  23  25]
1679714257.51002,[ 27  74 356 278  40  27  25  27]
1679714257.523424,[ 23  62 273 262  36  25  25  24]
1679714257.547531,[ 23  59 256 279  36  25  28  27]
1679714257.561052,[ 23  54 248 224  32  26  28  27]
1679714257.583669,[ 26  57 234 238  30  25  29  28]
1679714257.599997,[ 23  56 206 225  28  21  27  28]
1679714257.621218,[ 25  54 215 274  34  26  27  29]
1679714257.643523,[ 24  54 220 299  42  26  25  28]
1679714257.666059,[ 23  56 222 347  58  26  24  26]
