1679714438.695273,[ 28  61 237 404  64  28  26  29]
1679714438.710287,[ 28  63 246 354  64  29  28  29]
1679714438.734358,[ 26  59 230 310  59  31  28  29]
1679714438.755138,[ 26  58 206 305  54  29  28  28]
1679714438.770157,[ 25  61 217 332  58  28  27  28]
1679714438.79404,[ 25  61 251 430  64  29  27  26]
1679714438.815125,[ 23  59 216 492  78  33  28  25]
1679714438.83027,[ 25  54 214 510  83  30  30  23]
1679714438.853261,[ 23  52 223 520  88  31  29  22]
1679714438.875441,[ 22  45 211 509  81  30  29  24]
1679714438.890637,[ 25  54 206 484  90  33  29  27]
1679714438.912793,[ 25  53 233 522  96  29  28  29]
1679714438.935184,[ 25  51 244 498  92  31  26  28]
1679714438.950188,[ 28  54 238 524  90  30  28  31]
1679714438.981456,[ 27  56 236 533  93  31  27  30]
1679714438.995124,[ 25  46 221 517  85  26  26  29]
1679714439.011731,[ 26  52 228 452  73  26  25  27]
1679714439.040165,[ 27  57 242 471  69  22  24  27]
1679714439.05547,[ 24  61 249 472  81  27  23  25]
1679714439.071676,[ 26  64 246 471  79  26  24  26]
1679714439.100166,[ 27  64 267 470  82  29  26  26]
1679714439.115456,[ 25  65 314 460  73  31  26  26]
1679714439.137732,[ 23  72 287 444  73  31  26  25]
1679714439.152612,[ 25  67 285 390  62  27  25  25]
1679714439.175169,[ 24  66 287 372  65  28  26  26]
1679714439.20586,[ 25  65 254 363  57  25  23  25]
1679714439.21329,[ 27  69 191 464  68  26  25  26]
1679714439.235133,[ 28  63 242 460  66  27  24  25]
1679714439.266052,[ 25  62 234 458  62  27  24  25]
1679714439.272794,[ 25  61 236 500  64  25  24  27]
1679714439.29545,[ 24  67 260 507  75  32  25  27]
1679714439.318069,[ 23  66 248 389  65  29  25  26]
1679714439.333108,[ 21  59 229 380  69  28  26  28]
1679714439.363734,[ 21  59 228 363  67  29  26  29]
1679714439.377771,[ 22  59 249 391  81  30  27  28]
1679714439.392612,[ 21  61 262 431  81  28  27  28]
1679714439.415309,[ 20  63 283 443  84  30  27  32]
1679714439.437869,[ 22  66 268 440  83  32  26  32]
1679714439.45351,[ 23  67 269 448  86  34  27  32]
1679714439.475458,[ 23  67 264 367  68  33  26  30]
1679714439.497743,[ 22  61 230 247  53  29  25  30]
1679714439.514075,[ 23  49 199 392  60  28  24  26]
1679714439.536601,[ 24  53 223 476  58  26  27  26]
1679714439.557694,[ 26  62 276 494  55  25  26  25]
1679714439.580116,[ 24  59 266 518  55  25  24  24]
1679714439.604792,[ 25  60 268 564  67  27  25  24]
1679714439.625799,[ 29  60 258 466  59  30  25  25]
1679714439.632575,[ 27  54 238 380  57  28  26  26]
1679714439.65514,[ 25  47 182 342  54  27  26  25]
1679714439.677699,[ 28  51 258 539  98  29  29  25]
1679714439.700203,[ 30  53 266 521  99  32  29  26]
1679714439.715099,[ 28  52 267 514  99  29  28  26]
1679714439.737579,[ 30  55 279 527 108  33  27  29]
1679714439.752741,[ 32  63 303 617 118  37  28  31]
1679714439.775131,[ 32  64 246 517 101  38  25  31]
1679714439.797797,[ 32  64 248 500 103  37  28  32]
1679714439.812933,[ 32  66 252 539 104  37  29  33]
1679714439.835229,[ 30  64 234 546 100  36  28  30]
1679714439.859081,[ 27  52 192 448  89  31  26  26]
1679714439.873825,[ 27  54 200 350  69  28  28  34]
1679714439.903436,[ 25  48 233 408  67  26  26  31]
1679714439.927316,[ 25  63 309 415  83  33  26  30]
1679714439.932606,[ 25  66 313 404  77  33  30  34]
1679714439.955163,[ 27  67 320 471  80  34  32  35]
1679714439.97774,[ 25  71 355 630  92  36  33  27]
1679714439.992565,[ 24  84 377 620 104  40  32  28]
1679714440.015283,[ 23  75 330 605  91  34  32  28]
1679714440.037673,[ 23  76 334 644  99  34  29  22]
1679714440.052623,[ 25  77 340 601  98  33  28  24]
1679714440.075307,[ 25  74 303 502  95  32  25  24]
1679714440.097995,[ 25  62 234 461  71  25  29  24]
1679714440.120075,[ 29  56 229 518  73  25  30  28]
1679714440.136778,[ 28  58 257 521  80  31  29  28]
1679714440.159162,[ 25  56 257 555  84  31  31  29]
1679714440.189834,[ 26  57 279 514  84  34  32  29]
1679714440.202978,[ 26  55 314 553  94  35  29  29]
1679714440.227554,[ 22  59 322 558  99  37  26  25]
1679714440.240731,[ 24  67 289 560  96  35  29  27]
1679714440.255177,[ 24  72 278 534  93  36  26  23]
1679714440.277659,[ 24  68 244 537  87  32  22  22]
1679714440.30506,[ 26  67 223 494  75  31  27  25]
1679714440.315191,[ 27  65 210 399  64  30  28  27]
1679714440.337678,[ 26  50 218 345  50  28  24  24]
1679714440.36048,[ 26  47 270 355  50  28  25  28]
1679714440.375323,[ 26  46 270 325  46  29  27  30]
1679714440.413406,[ 25  45 259 336  44  27  24  28]
1679714440.444008,[ 25  44 311 354  53  27  26  28]
1679714440.445522,[ 26  48 315 484  54  25  27  29]
1679714440.459304,[ 26  41 275 536  70  26  26  31]
1679714440.480222,[ 27  50 298 532  70  26  28  32]
1679714440.502651,[ 27  58 364 563  80  28  27  31]
1679714440.518052,[ 27  60 310 561  75  27  27  31]
1679714440.548838,[ 25  60 310 433  72  28  27  32]
1679714440.556726,[ 26  66 332 471  65  26  28  29]
1679714440.577897,[ 24  58 325 529  88  31  24  28]
1679714440.600156,[ 23  55 242 504  88  30  26  29]
1679714440.622691,[ 26  54 237 489  87  31  24  29]
1679714440.645854,[ 27  51 232 549  95  31  24  28]
1679714440.660135,[ 27  51 198 450  93  33  21  27]
1679714440.675052,[ 28  62 249 465  87  32  23  28]
1679714440.699217,[ 28  60 248 456  79  30  22  26]
1679714440.723912,[ 28  58 250 483  83  29  24  25]
1679714440.736757,[ 26  61 247 410  82  32  23  24]
1679714440.757582,[ 23  58 250 449  82  30  24  26]
1679714440.781553,[ 23  52 198 352  64  25  25  25]
1679714440.802799,[ 26  58 219 360  63  27  25  27]
1679714440.81766,[ 24  58 283 344  66  31  25  27]
1679714440.840564,[ 25  55 280 422  57  26  25  24]
1679714440.856594,[ 27  52 272 380  47  25  25  25]
1679714440.885874,[ 28  45 275 402  52  27  24  25]
1679714440.900227,[ 25  42 268 412  57  28  26  24]
1679714440.922808,[ 28  66 212 443  63  29  26  24]
1679714440.946572,[ 28  67 245 401  61  29  27  24]
1679714440.968667,[ 27  67 251 388  62  30  26  25]
1679714440.975047,[ 29  67 231 390  71  30  26  25]
1679714440.997692,[ 29  66 224 366  68  28  24  24]
1679714441.020046,[ 28  49 246 397  58  24  25  28]
1679714441.042513,[ 26  60 293 454  77  30  25  28]
1679714441.05773,[ 26  60 296 469  81  28  27  29]
1679714441.080054,[ 25  60 308 462  86  29  28  30]
1679714441.10264,[ 24  54 302 486  89  29  28  30]
1679714441.118985,[ 22  50 267 426  90  29  26  27]
1679714441.140235,[ 25  47 194 312  72  24  25  27]
1679714441.162818,[ 25  50 209 315  70  27  26  28]
1679714441.177563,[ 24  56 221 314  53  26  27  30]
1679714441.201519,[ 25  56 235 347  52  25  27  29]
1679714441.222866,[ 24  58 245 391  60  27  27  29]
1679714441.237657,[ 25  46 258 420  64  31  33  31]
1679714441.26824,[ 25  53 262 436  66  29  31  29]
1679714441.282609,[ 24  50 236 457  65  29  28  27]
1679714441.297629,[ 25  50 225 425  65  29  28  27]
1679714441.335821,[ 26  50 244 419  65  27  30  27]
1679714441.34263,[ 24  50 250 403  64  23  25  26]
1679714441.357659,[ 23  35 224 375  62  24  26  26]
1679714441.380171,[ 24  43 249 363  62  23  26  30]
1679714441.402614,[ 27  50 276 392  74  28  26  29]
1679714441.417957,[ 27  48 269 366  66  27  26  29]
1679714441.440133,[ 28  59 283 413  69  31  26  28]
1679714441.462971,[ 30  80 299 428  69  32  29  29]
1679714441.479161,[ 29  78 298 411  68  33  28  24]
1679714441.508477,[ 26  78 271 369  60  30  29  25]
1679714441.522634,[ 29  85 268 366  68  32  27  24]
1679714441.569974,[ 27  81 221 374  70  30  26  26]
1679714441.571453,[ 27  63 203 369  75  27  24  25]
1679714441.590839,[ 28  58 171 343  74  26  24  26]
1679714441.621506,[ 28  51 172 346  67  29  27  27]
1679714441.622911,[ 27  54 142 328  58  29  28  26]
1679714441.64267,[ 27  57 149 259  54  29  28  24]
1679714441.657744,[ 25  54 159 318  51  28  26  25]
1679714441.680126,[ 25  57 185 430  71  32  28  23]
1679714441.703332,[ 25  60 192 493  82  30  25  20]
1679714441.717632,[ 24  50 215 515  85  28  25  25]
1679714441.740493,[ 23  51 245 527  83  31  27  27]
1679714441.762664,[ 23  55 251 541  88  33  29  26]
1679714441.777601,[ 25  53 246 503  83  29  26  28]
1679714441.800176,[ 24  53 243 473  74  30  26  28]
1679714441.822773,[ 24  57 250 499  78  34  29  26]
1679714441.839088,[ 26  48 227 496  78  29  26  24]
1679714441.867688,[ 26  50 234 471  79  30  25  23]
1679714441.891042,[ 27  54 244 568  72  30  30  27]
1679714441.897756,[ 27  74 282 575  92  30  30  27]
1679714441.920149,[ 29  86 331 555 101  28  28  30]
1679714441.945491,[ 29  86 317 537  99  28  30  34]
1679714441.965151,[ 31  86 306 507  92  28  30  34]
1679714441.980032,[ 28  83 290 378  88  26  26  32]
1679714442.002589,[ 29  66 255 311  70  26  27  34]
1679714442.025367,[ 27  47 200 306  49  28  28  29]
1679714442.040094,[ 27  53 215 390  63  29  26  27]
1679714442.062663,[ 23  53 217 438  64  26  26  25]
1679714442.085174,[ 27  55 244 483  75  27  28  25]
1679714442.101698,[ 26  56 260 539  91  29  27  25]
1679714442.123949,[ 27  64 274 526  91  26  26  27]
1679714442.145585,[ 27  62 281 523  87  29  28  30]
1679714442.160153,[ 29  61 286 495  88  30  30  32]
1679714442.182842,[ 23  58 267 426  81  29  27  29]
1679714442.205141,[ 25  55 259 445  71  26  30  31]
1679714442.220524,[ 25  44 209 460  70  29  32  30]
1679714442.242651,[ 25  62 238 420  70  30  28  29]
1679714442.26526,[ 28  60 221 392  67  29  25  27]
1679714442.287729,[ 30  61 223 414  68  29  28  28]
1679714442.302766,[ 29  61 219 354  62  33  27  26]
1679714442.333354,[ 29  57 218 322  57  32  23  26]
1679714442.340085,[ 28  35 156 291  46  28  27  26]
1679714442.362542,[ 26  32 148 297  45  30  31  29]
1679714442.38509,[ 26  35 144 266  45  43  35  32]
1679714442.40007,[ 27  46 183 400  51  42  34  30]
1679714442.430784,[ 25  51 234 422  56  46  35  30]
1679714442.445234,[ 29  51 254 583  84  48  35  30]
1679714442.46012,[ 29  53 279 623  94  49  33  27]
1679714442.490819,[ 29  57 300 663  95  38  27  25]
1679714442.505357,[ 28  55 274 572  90  36  29  25]
1679714442.520136,[ 28  58 274 682 120  33  29  27]
1679714442.542748,[ 26  69 306 650 127  38  28  28]
1679714442.565261,[ 24  69 301 625 122  37  28  29]
1679714442.58013,[ 27  72 310 599 122  37  31  29]
1679714442.60263,[ 26  76 346 655 132  41  28  30]
1679714442.642963,[ 27  70 312 529 109  38  27  26]
1679714442.644535,[ 27  60 265 398  81  29  30  27]
1679714442.662788,[ 27  59 246 375  75  28  29  26]
1679714442.693543,[ 22  50 198 353  74  29  25  24]
1679714442.700472,[ 25  36 117 228  49  24  26  26]
1679714442.722943,[ 26  45 192 256  45  25  25  26]
1679714442.745371,[ 27  44 210 357  51  28  24  27]
1679714442.767714,[ 29  46 237 368  53  28  23  26]
1679714442.784759,[ 31  45 243 360  54  30  26  30]
1679714442.805106,[ 29  45 264 402  58  28  25  28]
1679714442.827566,[ 28  44 232 395  54  28  26  28]
1679714442.844031,[ 26  47 275 323  49  26  24  25]
1679714442.865161,[ 25  45 259 326  48  26  28  24]
1679714442.887713,[ 25  46 256 453  57  24  27  20]
1679714442.904073,[ 25  48 236 415  59  30  28  23]
1679714442.926628,[ 24  41 221 395  62  28  28  22]
1679714442.964001,[ 25  36 138 409  65  28  27  24]
1679714442.965445,[ 26  36 124 404  65  28  26  27]
1679714443.000763,[ 30  38 133 316  63  27  26  27]
1679714443.007606,[ 31  35 113 336  58  23  25  25]
1679714443.024061,[ 31  42 157 497  79  28  27  26]
1679714443.046626,[ 33  41 197 516  79  27  28  28]
1679714443.06757,[ 32  43 205 511  82  30  29  24]
1679714443.084044,[ 29  39 200 472  77  29  29  24]
1679714443.106665,[ 27  39 200 472  78  28  29  25]
1679714443.127656,[ 28  57 203 381  65  27  29  25]
1679714443.144402,[ 23  59 191 356  61  28  29  23]
1679714443.166587,[ 24  58 188 358  57  23  27  24]
1679714443.187539,[ 22  57 210 407  60  25  28  25]
1679714443.204338,[ 22  63 232 417  65  30  27  27]
1679714443.226703,[ 20  43 210 345  53  27  25  26]
1679714443.255099,[ 21  39 188 334  54  28  24  27]
1679714443.27025,[ 21  55 243 347  58  32  25  28]
1679714443.301248,[ 22  58 232 328  60  31  22  27]
1679714443.308022,[ 21  53 222 316  51  25  23  25]
1679714443.330241,[ 21  53 226 336  59  26  24  26]
1679714443.346684,[ 24  56 244 363  62  27  24  26]
1679714443.367803,[ 23  41 192 388  58  23  22  24]
1679714443.390059,[ 24  37 195 373  60  24  23  25]
1679714443.406577,[ 25  36 187 368  61  26  22  25]
1679714443.42803,[ 26  34 182 349  54  25  23  23]
1679714443.450083,[ 22  38 205 463  64  26  23  25]
1679714443.466874,[ 24  53 231 474  74  28  23  28]
1679714443.48765,[ 26  58 262 508  84  30  26  29]
1679714443.510172,[ 26  71 293 550  86  30  25  29]
1679714443.526571,[ 27  87 315 592  91  31  25  28]
1679714443.556602,[ 29  85 288 495  82  29  26  28]
1679714443.573427,[ 31  79 287 460  76  35  28  29]
1679714443.586613,[ 29  79 256 489  72  37  28  29]
1679714443.607673,[ 30  77 247 443  72  39  40  35]
1679714443.630272,[ 31  70 233 381  69  44  45  40]
1679714443.646618,[ 34  74 288 366  70  48  48  41]
1679714443.675131,[ 37  75 282 394  67  45  47  42]
1679714443.690273,[ 41  77 296 348  61  51  63  50]
1679714443.706578,[ 41  67 298 346  56  62  63  53]
1679714443.736695,[ 46  69 324 362  54  61  62  53]
1679714443.751599,[ 49  66 286 396  53  71  66  56]
1679714443.766599,[ 49  61 280 431  57  95  91  63]
1679714443.789647,[ 55  72 290 393  59 120 163  96]
1679714443.811984,[ 63  83 292 442  64 128 185 106]
1679714443.826638,[ 63  82 247 429  92 132 188 108]
1679714443.847871,[ 64  84 244 395  95 140 209 115]
1679714443.870109,[102  97 234 331 108 161 324 171]
1679714443.886565,[111 143 325 504 142 156 319 163]
1679714443.907643,[112 159 356 516 168 151 306 158]
1679714443.930173,[118 161 359 517 156 154 328 172]
1679714443.94669,[154 168 400 562 158 180 333 191]
1679714443.967691,[134 167 414 660 209 166 240 150]
1679714443.997644,[146 159 342 574 222 160 208 145]
1679714444.022272,[151 146 330 549 206 170 264 167]
1679714444.035647,[164 144 340 573 214 198 276 200]
1679714444.050081,[132 140 320 653 214 173 262 184]
1679714444.066625,[132 146 328 562 163 163 248 180]
1679714444.089114,[114 114 333 589 128 168 259 180]
1679714444.117651,[106 117 308 572 136 175 252 169]
1679714444.134257,[ 92 124 315 649 123 153 241 128]
1679714444.147726,[ 96 130 332 592 142 162 274 153]
1679714444.17029,[105 147 331 582 148 159 291 156]
1679714444.186643,[107 143 315 588 136 146 298 166]
1679714444.207592,[109 138 357 622 132 123 261 160]
1679714444.23167,[ 98 133 363 563 141 111 244 150]
1679714444.25424,[ 93 125 339 492 133 111 218 125]
1679714444.283399,[ 85  91 325 592 140 111 190 126]
1679714444.29038,[ 78  87 347 552 153 123 199 128]
1679714444.312601,[ 80  79 299 523 160 131 204 141]
1679714444.327636,[ 77  81 270 522 164 128 200 142]
1679714444.350138,[ 72  76 272 546 161 115 196 138]
1679714444.367065,[ 79 101 303 468 156 124 202 134]
1679714444.387891,[ 95 100 292 444 143 128 213 133]
1679714444.410265,[ 97 118 282 471 157 128 237 142]
1679714444.426759,[102 125 336 440 166 123 239 147]
1679714444.44772,[108 143 328 481 175 138 226 145]
1679714444.470118,[112 130 290 491 172 149 259 181]
1679714444.494167,[102 133 272 500 169 163 235 181]
1679714444.509182,[102 129 285 466 192 187 216 161]
1679714444.53161,[121 134 243 477 182 192 236 172]
1679714444.554135,[134 127 252 479 177 200 262 197]
1679714444.576631,[133 136 259 440 174 201 244 176]
1679714444.597604,[133 136 335 524 200 183 243 171]
1679714444.620169,[136 144 346 550 168 168 256 191]
1679714444.629179,[123 132 329 545 180 165 234 189]
1679714444.650374,[113 139 368 648 190 139 204 165]
1679714444.666559,[107 127 369 683 187 126 203 169]
1679714444.689101,[110 131 325 613 163 139 202 172]
1679714444.711645,[110 114 323 584 166 130 189 161]
1679714444.726643,[115 123 395 612 171 147 197 149]
1679714444.747822,[113 119 338 573 171 190 240 153]
1679714444.770232,[118 130 343 539 171 200 253 150]
1679714444.801748,[121 150 364 567 192 199 265 159]
1679714444.809216,[119 171 347 604 183 205 264 154]
1679714444.830061,[121 168 270 597 170 207 287 173]
1679714444.852635,[126 166 314 501 157 183 279 184]
1679714444.876563,[130 160 323 528 168 172 263 190]
1679714444.897604,[135 158 284 499 147 182 264 188]
1679714444.920101,[136 138 286 523 139 174 262 188]
1679714444.936749,[128 134 316 624 136 176 247 180]
1679714444.950163,[123 132 287 661 129 168 222 169]
1679714444.980147,[120 144 279 706 121 167 241 166]
1679714444.989119,[105 121 279 695 123 147 230 156]
1679714445.011171,[109 148 317 738 144 147 226 157]
1679714445.040174,[110 160 322 694 188 136 218 153]
1679714445.049147,[106 174 341 655 193 130 238 170]
1679714445.077637,[103 166 373 609 197 145 225 162]
1679714445.109387,[108 172 416 629 199 146 226 168]
1679714445.110576,[105 144 382 534 191 142 232 171]
1679714445.130231,[105 129 377 565 154 189 266 171]
1679714445.160964,[105  99 356 598 151 210 284 170]
1679714445.175083,[ 99 102 359 584 144 199 278 168]
1679714445.197586,[ 98 105 312 609 137 198 267 155]
1679714445.212987,[ 87 109 342 619 131 208 281 144]
1679714445.244782,[ 97 149 319 542 119 169 262 137]
1679714445.250304,[ 97 151 356 512 129 153 267 129]
1679714445.272655,[ 97 147 323 567 138 150 268 122]
1679714445.289457,[ 97 140 353 524 140 147 275 131]
1679714445.310181,[109 154 344 494 141 160 271 146]
1679714445.340149,[101 138 379 465 148 148 261 165]
1679714445.349369,[100 137 371 508 158 184 262 162]
1679714445.370139,[105 144 385 420 148 193 270 170]
1679714445.392743,[101 159 403 446 149 193 263 166]
1679714445.409243,[110 153 425 459 147 216 313 178]
1679714445.44729,[110 131 389 453 143 218 302 158]
1679714445.452633,[114 141 361 408 131 180 262 150]
1679714445.476691,[120 162 424 445 142 199 251 137]
1679714445.497596,[120 152 361 461 158 205 270 148]
1679714445.520095,[108 151 348 494 160 189 212 132]
1679714445.53652,[107 159 352 490 161 201 218 137]
1679714445.551556,[101 169 378 507 179 217 243 150]
1679714445.572982,[126 157 290 505 170 205 309 217]
1679714445.589061,[134 148 313 493 159 208 317 229]
1679714445.618016,[132 152 324 531 164 183 305 222]
1679714445.632828,[136 156 333 590 165 184 297 222]
1679714445.64916,[139 134 309 663 171 173 284 218]
1679714445.670196,[108 123 326 683 183 168 207 160]
1679714445.692558,[ 99 131 337 657 171 167 167 127]
1679714445.716635,[ 96 121 304 605 167 164 158 124]
1679714445.737684,[ 86 108 343 587 163 161 172 127]
1679714445.752662,[ 92 132 342 540 124 151 157 121]
1679714445.775074,[ 97 143 351 509 117 163 157 114]
1679714445.790238,[ 97 145 334 531 123 169 175 134]
1679714445.813014,[105 141 344 526 138 209 196 167]
1679714445.835708,[102 138 295 512 128 195 177 161]
1679714445.850065,[106 127 296 405 125 204 188 173]
1679714445.872577,[115 117 271 385 124 195 188 181]
1679714445.903438,[128 136 335 489 140 180 179 178]
1679714445.941505,[136 150 327 488 124 133 171 164]
1679714445.942994,[135 156 371 504 133 153 192 170]
1679714445.964791,[126 155 367 538 147 142 192 156]
1679714445.970059,[125 153 384 532 145 133 190 148]
1679714446.000155,[116 127 338 500 129 144 202 151]
1679714446.015329,[ 99 135 340 502 138 140 209 138]
1679714446.031652,[100 132 338 497 153 145 193 128]
1679714446.060581,[101 122 357 491 154 146 186 135]
1679714446.076571,[ 93 131 331 483 147 155 227 149]
1679714446.090258,[ 85 135 333 422 143 145 222 135]
1679714446.112676,[ 83 114 327 404 132 146 200 130]
1679714446.135122,[ 88 123 329 404 108 120 211 138]
1679714446.150163,[ 90 138 341 402  99 119 212 126]
1679714446.180778,[ 87 129 333 458 104 109 169 103]
1679714446.196619,[ 95 127 412 444 102 155 169 100]
1679714446.212579,[ 92 125 415 448 111 153 168  99]
1679714446.240231,[ 84 110 398 500 118 152 154  85]
1679714446.255121,[ 77  91 378 479 113 162 155  87]
1679714446.271538,[ 77  83 400 464 115 177 168  92]
1679714446.29263,[ 74  93 315 473 114 143 167 112]
1679714446.315134,[ 77  98 309 547 107 146 177 113]
1679714446.33158,[ 79 104 284 558 122 151 184 117]
1679714446.354198,[ 78  98 306 582 122 138 185 119]
1679714446.375224,[ 86  95 283 565 115 108 191 138]
1679714446.391581,[ 83  79 276 667 150 112 171 121]
1679714446.414142,[ 84  98 283 626 169 105 161 117]
1679714446.435105,[ 88  99 317 539 159 106 154 113]
1679714446.451603,[ 89 115 300 553 176 107 145 116]
1679714446.480105,[ 82 124 305 663 185 116 111  93]
1679714446.495332,[ 79 126 336 566 162 132 160 111]
1679714446.519244,[ 78 113 330 561 138 134 185 125]
1679714446.533478,[ 83 117 310 631 162 137 181 129]
1679714446.555113,[ 87 105 321 606 142 151 185 124]
1679714446.571617,[ 80  98 308 467 130 149 188 123]
1679714446.594068,[ 82 114 264 516 140 129 153 112]
1679714446.615112,[ 80 110 272 522 145 140 134 100]
1679714446.630403,[ 84  98 287 463 110 136 156 113]
1679714446.652703,[ 82 110 311 528 156 125 149 112]
1679714446.675129,[ 84 137 341 571 164 123 150 112]
1679714446.691591,[ 83 138 357 520 178 129 151 107]
1679714446.728378,[ 93 141 440 578 220 116 152 113]
1679714446.73517,[100 149 438 582 225 144 152 110]
1679714446.765871,[102 148 402 523 196 157 179 118]
1679714446.77257,[106 120 448 515 192 167 171 118]
1679714446.795276,[105  98 447 558 169 168 171 115]
1679714446.81786,[ 97 107 364 531 105 170 181 107]
1679714446.840152,[ 81 130 418 518  98 147 170  99]
1679714446.855169,[ 75 127 518 577 105 132 181 110]
1679714446.887356,[ 76 130 466 557 126 122 192 126]
1679714446.892684,[ 82 144 476 495 126 116 192 132]
1679714446.915613,[ 83 149 474 500 129 124 186 137]
1679714446.937726,[ 85 136 411 574 135 136 238 170]
1679714446.952725,[ 84 132 274 517 128 131 220 163]
1679714446.982625,[ 74 131 309 579 105 124 216 147]
1679714446.997517,[ 69 120 265 604 106 122 222 146]
1679714447.012962,[ 62 104 255 567 104 110 227 143]
1679714447.042678,[ 69 105 364 498  94  87 188 107]
1679714447.057753,[ 69 113 389 554 101 103 181  95]
1679714447.074221,[ 74 116 356 511 105 107 176  98]
1679714447.095142,[ 71 132 400 534 102 117 184  97]
1679714447.119026,[ 77 136 423 623 115 127 190 109]
1679714447.141186,[ 71 126 357 618 123 123 192 112]
1679714447.1626,[ 75 117 341 557 119 124 195 120]
1679714447.18604,[ 72 117 358 575 121 131 230 131]
1679714447.192562,[ 75  95 342 628 140 142 225 136]
1679714447.215145,[ 76  91 352 524 126 141 204 126]
1679714447.237994,[ 71  82 332 579 124 152 182 114]
1679714447.254057,[ 73  94 388 606 126 146 193 114]
1679714447.275193,[ 75  97 381 607 135 149 172 109]
1679714447.299414,[ 80  98 362 534 126 129 160 105]
1679714447.336522,[ 83 110 346 538 136 125 157 103]
1679714447.338156,[ 96 142 361 473 128 120 191 119]
1679714447.357634,[ 97 137 323 483 132 132 189 118]
1679714447.372645,[ 96 131 322 519 126 122 167 113]
1679714447.395554,[ 99 131 387 514 125 126 178 119]
1679714447.417663,[ 95 122 384 628 137 141 198 126]
1679714447.432786,[ 85  93 388 644 140 145 194 115]
1679714447.462885,[ 90 108 414 699 152 139 199 129]
1679714447.477616,[ 95 118 406 690 151 134 199 130]
1679714447.492707,[ 93 142 364 760 147 133 197 120]
1679714447.515128,[ 88 140 373 713 128 119 195 118]
1679714447.537624,[ 87 132 348 700 137 110 169 112]
1679714447.560335,[ 90 118 293 694 118  99 152 101]
1679714447.582544,[ 82 113 328 642 116  98 151  94]
1679714447.607283,[ 76  84 411 565 111  92 170  97]
1679714447.612594,[ 77  97 406 572 114  89 178  95]
1679714447.635103,[ 78 107 434 573  98 107 173  97]
1679714447.673563,[ 61 106 445 489  94 112 170  88]
1679714447.680101,[ 62 103 439 569 133 117 201  98]
1679714447.695152,[ 64 109 346 609 153 132 181  98]
1679714447.717804,[ 64 117 334 580 160 130 153  96]
1679714447.740215,[ 66 116 325 624 191 117 167  97]
1679714447.762646,[ 64 114 315 630 197 111 165  92]
1679714447.777957,[ 64 123 299 567 178 125 127  84]
1679714447.800106,[ 56 113 279 545 170 152 157  87]
1679714447.815133,[ 57  93 354 522 176 154 163  83]
1679714447.837548,[ 53  90 359 440 142 158 152  79]
1679714447.860171,[ 57  92 345 469 133 169 170  92]
1679714447.876374,[ 56  83 417 502 122 165 174  91]
1679714447.90704,[ 69 102 436 440 120 133 143  90]
1679714447.920134,[ 73 115 405 488 104 134 140  95]
1679714447.935138,[ 75 117 388 606 124 136 144 109]
1679714447.957591,[ 76 119 446 607 122 126 123 104]
1679714447.980413,[ 77 117 379 584 123 130 120 102]
1679714447.996557,[ 73 103 383 634 114 133 129 100]
1679714448.01758,[ 85  89 392 611 115 136 160 106]
1679714448.040992,[ 83  83 389 494 112 129 149  95]
1679714448.055203,[ 85  96 346 459 112 128 176 110]
1679714448.079672,[ 90 109 369 594 110 109 178 120]
1679714448.100336,[ 86 131 431 644 137  99 190 118]
1679714448.1151,[ 70 131 409 659 140  88 168 112]
1679714448.139313,[ 77 138 423 707 135 102 172 122]
1679714448.16029,[ 78 130 450 718 144  99 144 107]
1679714448.182708,[ 70 114 436 633 147 100 132  94]
1679714448.197927,[ 74  87 373 635 142 126 138 100]
1679714448.220408,[ 84 107 443 629 143 129 129  99]
1679714448.235224,[ 75  99 428 614 149 117 137  88]
1679714448.257857,[ 69  97 394 663 158 121 142 101]
1679714448.296877,[ 82 102 404 642 159 157 173 114]
1679714448.298161,[ 79 113 430 559 144 139 161 108]
1679714448.31761,[ 71  99 361 511 137 136 166 107]
1679714448.340378,[ 74 104 363 553 139 136 162 110]
1679714448.355746,[ 76 111 413 500 127 138 165 108]
1679714448.37767,[ 62 113 391 496 134  97 142 100]
1679714448.400133,[ 64 100 363 563 131  96 158 100]
1679714448.416644,[ 69  98 422 577 147 116 169 115]
1679714448.437562,[ 71 105 439 549 143 109 167 110]
1679714448.46987,[ 72  99 389 535 148 110 177 105]
1679714448.475229,[ 76  98 424 520 134 114 173 100]
1679714448.497799,[ 78  98 410 430 131 120 150  99]
1679714448.529908,[ 73 101 342 451 112 100 129  78]
1679714448.535218,[ 70  88 337 439  98 103 138  93]
1679714448.558195,[ 63  91 335 403  91 105 131  92]
1679714448.580124,[ 68  90 301 454  96 104 146 104]
1679714448.595144,[ 73 109 331 580 111  93 144 103]
1679714448.61765,[ 77 111 345 604 133 102 143 103]
1679714448.640145,[ 76 120 356 575 138 101 129  94]
1679714448.670833,[ 99 120 356 641 130 103 130 128]
1679714448.677623,[ 93 121 364 605 130 106 123 121]
1679714448.70013,[ 89 120 373 512 118 105 119 121]
1679714448.722693,[ 94 113 355 546  89 105 176 139]
1679714448.739092,[102 107 356 565  79 117 214 164]
1679714448.768317,[ 85 104 360 515  92 112 208 141]
1679714448.782647,[ 86 100 360 593  88 111 206 138]
1679714448.799058,[ 96  89 347 632 116 129 225 158]
1679714448.829765,[ 89  92 390 555 118 127 197 147]
1679714448.842683,[ 80  95 389 617 146 114 157 117]
1679714448.857814,[ 78  89 398 633 139 117 148 109]
1679714448.880146,[ 83 102 468 574 140 121 156 121]
1679714448.902813,[ 65 101 527 516 141 115 148 104]
1679714448.917628,[ 65  94 505 563 141 106 133  94]
1679714448.940436,[ 63  90 526 559 129 120 157  91]
1679714448.962703,[ 64 111 541 557 139 146 214 107]
1679714448.977777,[ 64 101 465 572 148 142 209 107]
1679714449.008381,[ 68  97 391 591 142 137 198 103]
1679714449.030868,[ 70 105 365 578 144 151 208 109]
1679714449.0376,[ 73 116 374 586 149 150 197 112]
1679714449.060854,[ 73 104 351 603 150 124 135  95]
1679714449.084241,[ 68 102 358 614 146 120 125  87]
1679714449.105514,[ 67 118 393 704 167 133 122  90]
1679714449.128467,[ 75 124 446 750 162 121 116  96]
1679714449.142702,[ 70 109 416 711 144 114 120  95]
1679714449.15819,[ 71 107 407 675 133 117 124 103]
1679714449.18013,[ 74 116 421 678 133 123 123  98]
1679714449.202595,[ 78 104 385 574  86 124 153 106]
1679714449.217885,[ 67  89 331 517 100 148 162 101]
1679714449.248939,[ 81 122 325 491 109 147 170 108]
1679714449.270829,[ 76 136 348 522 123 144 164 100]
1679714449.28518,[ 74 132 353 507 124 141 163  97]
1679714449.308368,[ 68 132 383 495 130 134 142  87]
1679714449.32278,[ 70 146 394 512 142 110 151  86]
1679714449.337746,[ 57 123 376 508 148 114 137  79]
1679714449.361786,[ 68 113 353 499 143 109 146  95]
1679714449.38298,[ 73 105 347 497 138 117 148 107]
1679714449.397702,[ 77 101 317 526 135 111 137 107]
1679714449.420191,[ 78  96 308 476 126 113 130 107]
1679714449.442753,[ 83 102 361 571 126 107 130 112]
1679714449.457658,[ 80  94 349 596 135 109 123 108]
1679714449.480299,[ 80 107 337 592 138  95 126  98]
1679714449.502834,[ 79 111 330 573 141 102 136  98]
1679714449.517648,[ 80  95 346 573 131 105 127  99]
1679714449.54983,[ 80  87 279 504 125 109 127  97]
1679714449.562679,[ 74  86 276 447 111 113 127  89]
1679714449.593338,[ 74  95 281 454 100 126 142  94]
1679714449.600068,[ 69  99 283 592  91 141 152  92]
1679714449.630841,[ 84 103 265 617  97 136 142 115]
1679714449.645308,[ 87 109 271 604  79 134 170 126]
1679714449.660117,[ 89 125 391 645  99 136 178 131]
1679714449.682716,[ 90 109 380 621 103 139 167 130]
1679714449.705417,[ 93 102 373 500 107 149 161 128]
1679714449.721555,[ 76 110 411 521 117 153 176 108]
1679714449.742787,[ 63 121 441 603 157 165 149  91]
1679714449.765435,[ 62 119 353 576 162 162 143  89]
1679714449.781736,[ 56 120 388 619 182 172 159  92]
1679714449.802942,[ 60 120 429 689 198 154 165 103]
1679714449.825248,[ 61 119 383 644 195 154 147 104]
1679714449.847752,[ 62  99 352 543 171 135 143  97]
1679714449.862875,[ 68  88 437 595 175 133 145 102]
1679714449.901772,[ 76  95 412 621 164 118 140  99]
1679714449.903109,[ 74 122 420 568 153  96 119  88]
1679714449.922674,[ 80 120 431 668 160 100 140  97]
1679714449.945302,[ 89 126 478 665 160 104 162 110]
1679714449.960514,[ 86 123 411 608 137 109 158 111]
1679714449.982668,[ 79 121 417 574 133 121 161 108]
1679714450.0051,[ 78 124 474 536 140 123 163 108]
1679714450.020675,[ 77 127 480 435 135 118 145 100]
1679714450.042643,[ 70 131 424 542 139 124 122  89]
1679714450.073385,[ 66 131 486 525 142 132 119  79]
1679714450.080111,[ 68 133 517 479 140 119 110  78]
1679714450.104207,[ 74 109 417 549 122 120 123  91]
1679714450.125162,[ 67 103 404 595 106 167 138  89]
1679714450.140093,[ 70 110 459 546  92 166 141  90]
1679714450.164077,[ 69 121 418 611 105 160 144  90]
1679714450.185346,[ 73 117 384 623 105 160 136  91]
1679714450.20765,[ 66 126 413 555 104 173 125  78]
1679714450.223022,[ 65 126 416 516 108 127 105  73]
1679714450.245274,[ 62 112 355 582 113 124  97  65]
1679714450.260196,[ 59  97 313 605 109 112  89  63]
1679714450.282786,[ 55  99 328 626 108 117  96  61]
1679714450.305344,[ 53  87 337 637 103 138 133  70]
1679714450.320148,[ 54  77 330 640  98 143 145  74]
1679714450.342931,[ 54  72 344 558  91 141 142  75]
1679714450.365267,[ 55  77 368 471  89 149 149  79]
1679714450.380347,[ 65  87 390 488  95 179 189 107]
1679714450.40262,[ 66  87 376 498 100 156 191 112]
1679714450.426615,[ 67  87 389 479 102 160 197 111]
1679714450.440353,[ 68  90 401 525 112 168 204 118]
1679714450.471585,[ 69 102 398 550 108 165 199 116]
1679714450.493325,[ 59  84 351 551 112 123 158  90]
1679714450.500158,[ 65  90 359 553 120 121 133  86]
1679714450.522551,[ 84 114 369 542 129 121 131 110]
1679714450.54509,[ 89 118 357 555 132 122 129 116]
1679714450.568034,[ 93 108 339 549 140 132 151 125]
1679714450.582621,[ 91 108 368 528 132 164 196 136]
1679714450.613354,[ 92 101 352 574 125 175 204 134]
1679714450.627776,[ 76 117 342 659 132 179 198 118]
1679714450.642548,[ 84 120 336 658 127 195 233 124]
1679714450.673306,[ 87 125 433 669 118 206 270 135]
1679714450.687698,[ 99 152 419 648 139 179 246 128]
1679714450.704137,[101 160 468 693 162 167 239 128]
1679714450.725202,[105 133 463 622 157 149 233 127]
1679714450.747639,[ 97 151 491 566 156 129 209 116]
1679714450.771118,[ 93 171 414 524 158 107 151 100]
1679714450.785229,[ 95 154 409 500 135 117 163 118]
1679714450.807698,[ 87 147 331 330 105 153 218 124]
1679714450.830275,[ 89 150 362 446  97 161 231 141]
1679714450.845101,[ 94 149 339 506 102 162 287 172]
1679714450.867712,[ 93 120 334 511 120 172 287 166]
1679714450.882806,[ 81 137 387 606 129 175 278 157]
1679714450.905123,[ 88 140 396 683 131 150 253 151]
1679714450.927663,[ 87 143 354 604 125 150 254 142]
1679714450.944102,[ 84 138 348 659 118 153 188 114]
1679714450.98904,[ 79 137 356 674  95 133 180 112]
1679714450.99059,[ 84 122 283 623  82 126 187 113]
1679714451.0026,[ 79 127 319 559  79 121 175 108]
1679714451.026621,[ 74 121 327 603  94 110 191 114]
1679714451.047656,[ 66 107 334 474 103  90 193 108]
1679714451.062657,[ 80 110 317 551 113  97 195 120]
1679714451.085151,[ 79 150 341 638 131  99 189 116]
1679714451.108211,[ 82 156 320 650 134  99 188 123]
1679714451.122642,[ 82 171 359 602 138 121 171 112]
1679714451.146627,[ 88 174 365 655 146 128 166 110]
1679714451.167658,[ 80 176 411 583 141 125 174  98]
1679714451.18278,[ 75 136 395 470 124 129 174  93]
1679714451.205177,[ 68 119 419 498 118 126 165  86]
1679714451.227659,[ 77  99 396 531 112 113 174  98]
1679714451.242665,[ 77  89 402 505  95 106 188 115]
1679714451.280587,[ 87 100 352 496 108 128 216 130]
1679714451.295881,[ 89 105 357 492 124 118 210 132]
1679714451.302897,[ 94 113 318 409 138 133 210 132]
1679714451.327247,[ 89 109 323 373 140 164 207 123]
1679714451.349173,[ 85 113 315 414 154 162 183  95]
1679714451.362599,[ 73 100 328 437 147 146 130  71]
1679714451.385285,[ 72 109 341 551 135 172 158  81]
1679714451.407623,[ 92 107 376 562 128 182 294 153]
1679714451.43034,[ 89 115 408 596 120 154 298 159]
1679714451.445111,[ 89 105 374 582  97 158 309 165]
1679714451.484763,[104 109 426 573  87 166 314 174]
1679714451.490114,[103  90 426 524  94 166 305 174]
1679714451.50517,[ 80  82 412 642 101 147 180 116]
1679714451.536998,[ 76  69 363 611  99 143 156 103]
1679714451.550141,[ 81  76 402 561 105 151 136 113]
1679714451.56518,[ 62  63 329 650 125 149 134 100]
1679714451.588013,[ 62  77 304 608 132 126 131  90]
1679714451.618646,[ 71  83 338 474 131 129 146 104]
1679714451.625477,[ 75 101 371 515 156 132 165 120]
1679714451.647607,[ 73 103 351 581 176 128 195 112]
1679714451.670216,[ 76 112 423 635 179 128 207 114]
1679714451.685149,[ 84 111 444 659 175 130 211 130]
1679714451.707651,[ 77 111 408 691 176 139 214 125]
1679714451.746642,[ 75 102 405 699 158 140 198 113]
1679714451.749631,[ 72  97 416 730 155 138 176 103]
1679714451.777442,[ 80  90 345 668 161 139 188 120]
1679714451.790737,[ 72  90 384 774 187 165 195 108]
1679714451.813215,[ 74  94 411 775 197 154 177 103]
1679714451.827653,[ 75  86 394 758 198 153 171  99]
1679714451.850163,[ 86  94 408 749 190 158 154 102]
1679714451.865313,[ 75  89 406 806 181 159 124  93]
1679714451.90345,[ 73  89 412 693 153 125 103  90]
1679714451.910218,[ 70  84 387 710 131 120 117  92]
1679714451.925077,[ 78  99 399 780 124 122 135 103]
1679714451.947977,[ 71  99 473 912 150 111 174 120]
1679714451.970431,[ 75 108 482 859 148 112 175 109]
1679714451.987947,[ 77 106 448 886 153 121 170 105]
1679714452.007801,[ 76 112 476 845 160 122 158 101]
1679714452.038143,[ 72 100 472 823 168 121 158 107]
1679714452.047298,[ 67 100 415 760 153 135 141  85]
1679714452.08331,[ 61  96 461 754 155 143 139  84]
1679714452.090116,[ 60 100 540 752 149 134 164  89]
1679714452.106739,[ 61 111 528 773 149 136 184  91]
1679714452.127818,[ 60 122 555 714 139 143 186  72]
1679714452.150181,[ 67 123 552 566 116 130 215  92]
1679714452.165533,[ 87 152 557 572 139 112 238 115]
1679714452.188608,[ 85 149 554 554 138 138 235 117]
1679714452.210218,[ 90 139 572 533 130 133 230 129]
1679714452.226708,[ 86 134 610 595 141 139 233 139]
1679714452.247638,[ 84 134 585 617 139 137 199 129]
1679714452.278365,[ 63 105 540 575 117 138 165 110]
1679714452.285082,[ 65 103 474 535 122 113 144 108]
1679714452.307652,[ 71 107 451 576 125 135 166 101]
1679714452.330248,[ 72 103 406 558 113 131 158  89]
1679714452.354102,[ 67  92 397 509 114 138 158  90]
1679714452.369049,[ 72  88 397 544 113 164 208 109]
1679714452.390234,[ 73  89 400 612 103 169 232 116]
1679714452.40662,[ 69  82 422 635 119 165 207 107]
1679714452.427854,[ 74 101 372 587 121 152 197 108]
1679714452.458721,[ 73 101 407 645 122 148 200 108]
1679714452.472601,[ 73  99 429 595 113 122 146  99]
1679714452.487783,[ 76  98 410 557 111 120 120  97]
1679714452.510124,[ 72  95 376 523  99 100 119  98]
1679714452.5327,[ 64  71 401 519  99 105 116  90]
1679714452.547675,[ 78  74 350 443  92 110 126 102]
1679714452.570178,[ 73  91 354 568 101 125 161 101]
1679714452.63288,[ 69  95 343 543 100 132 167 107]
1679714452.634426,[ 68  89 390 499  85 147 178 112]
1679714452.638242,[ 73 114 385 584  86 158 183 117]
1679714452.660985,[ 59 138 490 621  98 153 171 103]
1679714452.667599,[ 60 128 484 515  82 132 136  92]
1679714452.691691,[ 69 125 491 576  91 122 174  99]
1679714452.71368,[ 68 132 515 710 108 112 182 103]
1679714452.735216,[ 64 116 538 676 125  99 186  99]
1679714452.750131,[ 63  82 453 714 133 101 183 104]
1679714452.781533,[ 60  89 455 720 148 105 186 105]
1679714452.787575,[ 67  90 504 665 148 118 154 108]
1679714452.810351,[ 68  81 435 625 138 119 147  97]
1679714452.832766,[ 75  86 422 656 123 126 151 112]
1679714452.85517,[ 83 109 447 632 111 131 174 125]
1679714452.878309,[ 86 104 437 695 118 133 182 129]
1679714452.90126,[ 77 106 434 744 121 119 168 109]
1679714452.923346,[ 93 136 471 692 124 111 167 133]
1679714452.930284,[ 87 133 441 655 122 112 160 125]
1679714452.960622,[ 84 116 422 645 122  97 153 120]
1679714452.969235,[ 92 114 441 576 104  89 157 124]
1679714452.990089,[ 90 133 418 515 107 108 164 124]
1679714453.012741,[ 78 102 383 553 115 109 195 140]
1679714453.027697,[ 86  95 399 608 125  99 192 144]
1679714453.050121,[ 84 115 410 566 129 100 170 135]
1679714453.072645,[ 73 113 418 582 122 104 159 129]
1679714453.087614,[ 72  91 410 617 116  90 183 131]
1679714453.111572,[ 62  95 454 606 137 102 156  85]
1679714453.132656,[ 56 111 471 581 135 105 156  75]
1679714453.156849,[ 51  95 495 774 152 112 163  75]
1679714453.17165,[ 60 123 541 799 165 117 165  86]
1679714453.203042,[ 60 134 565 855 178 120 134  88]
1679714453.209137,[ 68 135 572 821 160 113 114  97]
1679714453.230861,[ 81 127 544 812 152 119 141 115]
1679714453.260773,[ 84 135 570 679 134 132 148 117]
1679714453.269071,[ 80 114 511 696 124 129 154 111]
1679714453.29032,[ 82  98 468 658 108 125 155 110]
1679714453.312665,[ 92  96 477 755 119 134 179 124]
1679714453.33516,[ 79 111 495 785 130 137 167 107]
1679714453.350197,[ 83  97 428 793 131 117 159 117]
1679714453.381545,[ 81 100 469 781 151 140 175 120]
1679714453.395152,[ 83 114 543 772 163 144 189 128]
1679714453.412026,[ 65 117 484 719 164 129 169 106]
1679714453.434119,[ 73 101 513 759 171 133 170 117]
1679714453.455238,[ 71 104 557 709 169 137 169 112]
1679714453.493894,[ 73 108 511 665 147 110 147 108]
1679714453.500788,[ 68  90 450 634 125  99 129  98]
1679714453.523369,[ 68  91 520 621 112 115 129  99]
1679714453.54594,[ 59  87 501 558 107  96 133  90]
1679714453.552705,[ 50  96 531 632 117  94 134  80]
1679714453.575397,[ 55  84 538 622 116 158 163  78]
1679714453.590195,[ 59  88 535 633 127 163 166  79]
1679714453.620843,[ 59  87 480 604 127 166 175  78]
1679714453.643379,[ 59  88 512 605 113 170 166  69]
1679714453.650158,[ 59  73 496 588 108 177 166  71]
1679714453.674226,[ 54  74 499 613 119 125 132  74]
1679714453.711482,[ 50  71 535 610 116 128 140  76]
1679714453.713009,[ 69  60 530 607 114 114 159  92]
1679714453.733062,[ 72  68 480 556 120 140 176  96]
1679714453.755196,[ 75  81 436 620 118 131 179 100]
1679714453.777862,[ 75  97 455 679 136 129 176  95]
1679714453.7942,[ 77 100 467 690 146 126 192 111]
1679714453.81548,[ 61 107 458 754 160 138 168  96]
1679714453.837754,[ 61 105 478 756 158 124 170 107]
1679714453.852654,[ 66  95 485 661 159 131 182 121]
1679714453.875266,[ 75  82 460 570 134 134 194 137]
1679714453.890242,[ 75  87 386 583 129 150 196 129]
1679714453.912679,[ 76  79 462 546 124 140 198 133]
1679714453.943502,[ 73  77 472 586 127 127 174 122]
1679714453.957837,[ 68  98 545 589 127 115 161 108]
1679714453.972667,[ 56 101 534 641 130 116 149  91]
1679714454.003458,[ 57  92 556 585 127  88 105  81]
1679714454.010163,[ 60  93 571 555 121 101 101  81]
1679714454.03304,[ 57  97 534 541 122 100 114  82]
1679714454.056645,[ 59  75 533 544 111 108 105  81]
1679714454.077604,[ 59  76 534 486 109 124 130  87]
1679714454.092674,[ 57  85 528 513 105 140 138  87]
1679714454.115579,[ 54  86 469 494  98 126 137  80]
1679714454.130207,[ 57  89 489 481  98 126 132  79]
1679714454.152759,[ 70 102 437 532 108 128 155  80]
1679714454.175204,[ 79  94 439 635 122 126 177  86]
1679714454.197622,[ 82  94 429 630 126 116 205  98]
1679714454.21309,[ 82  99 423 681 135 117 204 100]
1679714454.235457,[ 81 103 428 769 149 114 205 101]
1679714454.251747,[ 82  93 396 751 159 128 188 104]
1679714454.27267,[ 90 111 469 787 167 110 151  96]
1679714454.303427,[ 87 110 491 775 161 101  90  76]
1679714454.334098,[ 86 102 469 732 155  96  85  75]
1679714454.335713,[ 85  98 513 653 137  96  91  80]
1679714454.356593,[ 72 114 523 759 136  71 109  77]
1679714454.377816,[ 64  97 491 614 108  86 146  88]
1679714454.392598,[ 63  93 481 618 108 107 156  94]
1679714454.415163,[ 64  97 497 766 141 112 166 100]
1679714454.438366,[ 68  90 437 730 140 112 162 100]
1679714454.452687,[ 69  74 488 615 130 118 160 101]
1679714454.475209,[ 60  71 468 708 134 116 134  96]
1679714454.497749,[ 59  64 443 744 136 100 122  93]
1679714454.512757,[ 57  64 517 605 108  97 112  90]
1679714454.559175,[ 53  82 513 613 114  98 121  90]
1679714454.560663,[ 49  80 502 597 110  90 116  82]
1679714454.572889,[ 64  90 506 542 115  85 127  99]
1679714454.595324,[ 70 102 557 621 142  91 155 107]
1679714454.617744,[ 73 111 532 704 158  98 156 112]
1679714454.634252,[ 72  99 546 696 156  96 145 106]
1679714454.655073,[ 75  98 485 753 159  98 150 105]
1679714454.677659,[ 72  93 490 745 165  94 128  92]
1679714454.693018,[ 66  87 426 642 136 105 106  89]
1679714454.71511,[ 64  74 394 511 107 103 103  82]
1679714454.73768,[ 71  86 386 540 110 109 122  92]
1679714454.752669,[ 69  99 375 448 109 102 106  92]
1679714454.77512,[ 66 103 428 441  92 108 128  96]
1679714454.797661,[ 71 104 462 459 105 104 124  92]
1679714454.812591,[ 75 103 437 464 126  99 128  96]
1679714454.850773,[ 71  96 489 567 134  94 118  92]
1679714454.859062,[ 74  95 505 679 136  95 127  95]
1679714454.874044,[ 65 116 595 679 139  87 111  85]
1679714454.895112,[ 64 119 612 657 132  85 133  86]
1679714454.91778,[ 61 121 632 760 138  85 159  92]
1679714454.934129,[ 63 119 608 687 130  85 160  95]
1679714454.955236,[ 61 110 625 625 145  86 155  96]
1679714454.977841,[ 68  86 498 656 147 106 194 104]
1679714454.992656,[ 75  77 477 647 151 107 184 118]
1679714455.015138,[ 77  82 439 559 134 129 169 110]
1679714455.0377,[ 74  86 482 538 129 134 175 105]
1679714455.05268,[ 73  81 484 533 108 137 196 109]
1679714455.075454,[ 73  75 468 484 100 125 161 106]
1679714455.097792,[ 71  77 452 508 100 118 164 101]
1679714455.12836,[ 67  71 498 572  91  92 156  99]
1679714455.150651,[ 67  63 454 649 101  94 143  97]
1679714455.159052,[ 72  88 537 616 110  92 118  92]
1679714455.173187,[ 66  94 530 643 124  90 110  80]
1679714455.196606,[ 56  96 555 701 149  80  98  62]
1679714455.217738,[ 63 101 571 660 153 108 110  73]
1679714455.23422,[ 72 108 541 585 142 109 150 102]
1679714455.255144,[ 73  90 402 563 132 105 151 106]
1679714455.277654,[ 87  86 408 554 117 131 174 120]
1679714455.300592,[118  86 415 518  85 138 197 130]
1679714455.323338,[116  96 363 501  93 118 192 123]
1679714455.337842,[113  91 417 475  98 114 164 101]
1679714455.375623,[115  95 461 567 100 121 171 111]
1679714455.384155,[118  92 500 667 145  95 148 107]
1679714455.397649,[ 90  97 550 697 174  92 112  99]
1679714455.420146,[ 91  89 600 690 167  96 106 103]
1679714455.442703,[ 87  91 629 744 169 104 114 101]
1679714455.457829,[ 90  90 617 724 172 106 112  94]
1679714455.480146,[ 69  92 584 634 152 104 124  86]
1679714455.495162,[ 64  91 565 582 117  98 123  81]
1679714455.51762,[ 74  96 497 614 129  97 157 101]
1679714455.540203,[ 94 109 477 699 137  94 163 121]
1679714455.555112,[ 86 120 588 692 156  87 151 115]
1679714455.577622,[ 86 120 606 675 149  84 136 110]
1679714455.600182,[ 87 118 534 717 158  87 138 109]
1679714455.615103,[ 77 108 622 678 152  88 103  94]
1679714455.637935,[ 56  98 641 544 141  74  82  77]
1679714455.660461,[ 59  91 638 508 113  73  84  84]
1679714455.676601,[ 61  95 631 494 105  78  94  85]
1679714455.69911,[ 58  95 669 578 118  87  94  85]
1679714455.720304,[ 57  99 649 734 133  80  96  81]
1679714455.735097,[ 51 117 592 724 145  81  90  71]
1679714455.75772,[ 60 118 492 710 147  85  90  72]
1679714455.780254,[ 63 116 517 716 145  87  89  85]
1679714455.795095,[ 75 134 482 659 127  85 107  92]
1679714455.817635,[ 74 131 400 537 111  85 101  90]
1679714455.848755,[ 78 118 481 615 104  87 101  93]
1679714455.855255,[ 67 108 463 645 103  87 111  90]
1679714455.893392,[ 72 114 470 670 116 104 135  77]
1679714455.900093,[ 71  86 464 667 117 110 135  85]
1679714455.915236,[ 80  81 451 627 112 122 177 117]
1679714455.939239,[ 80  71 373 597 104 131 189 123]
1679714455.960126,[ 83  78 493 609 114 138 202 134]
1679714455.975341,[ 82  70 467 706 125 120 187 138]
1679714455.99765,[ 83  88 516 653 125 111 185 140]
1679714456.020657,[ 78 106 590 646 131 122 169 120]
1679714456.03569,[ 78 113 572 646 134 116 173 119]
1679714456.05775,[ 79 110 519 709 140 110 150 103]
1679714456.080259,[ 72 117 595 629 123 112 149  94]
1679714456.095166,[ 61 108 602 645 135 132 152  82]
1679714456.117697,[ 54 109 616 653 133 126 135  77]
1679714456.140194,[ 51 102 630 700 137 132 126  68]
1679714456.155055,[ 41 101 633 709 138 125 126  66]
1679714456.177738,[ 42  96 563 672 141 120 127  67]
1679714456.201792,[ 60 110 598 641 125 108 135  59]
1679714456.222718,[ 71 104 549 699 140  90 128  67]
1679714456.238018,[ 73 106 588 713 139  81 127  71]
1679714456.277292,[ 78 112 593 658 127  81 127  74]
1679714456.299593,[ 75 123 594 718 120  83 134  76]
1679714456.300683,[ 69 107 554 735 122  93 153  86]
1679714456.320185,[ 60 104 575 724 119  96 154  76]
1679714456.342688,[ 59 108 590 627 110 100 145  70]
1679714456.365909,[ 51 108 576 616 110 120 161  69]
1679714456.380135,[ 59  94 605 565 123 122 154  71]
1679714456.402653,[ 57 109 596 583 131 104 112  60]
1679714456.417645,[ 65 106 623 714 159 117 122  84]
1679714456.440119,[ 75  99 569 776 162 117 175 107]
1679714456.463233,[ 81 105 635 773 161 102 169 120]
1679714456.477619,[ 79 112 618 797 154 112 174 123]
1679714456.50161,[ 80 109 642 806 147 121 175 132]
1679714456.522803,[ 74 110 572 625  99 119 184 127]
1679714456.537757,[ 61 110 573 543 101 126 150 115]
1679714456.560509,[ 63 109 541 588  98 131 166 117]
1679714456.582869,[ 71 104 582 588 102 123 162 118]
1679714456.597661,[ 72  89 518 534 106 127 167 116]
1679714456.620312,[ 78 125 584 628 125 121 151 110]
1679714456.642742,[ 80 142 634 740 146 104 145 106]
1679714456.657601,[ 77 136 606 699 165  96 116  92]
1679714456.680213,[ 71 151 554 718 186  96 104  84]
1679714456.702702,[ 74 165 599 727 184  85 117  95]
1679714456.719331,[ 68 138 616 692 181  94 155 103]
1679714456.748117,[ 68 125 585 631 172  98 175 112]
1679714456.762599,[ 67 124 543 629 158  93 177 114]
1679714456.785222,[ 67 102 638 626 140  98 181 118]
1679714456.808522,[ 58  77 626 626 137  91 172 105]
1679714456.822717,[ 55  81 576 591 132  77 142  96]
1679714456.837722,[ 58  87 577 536 118  72 114  85]
1679714456.864997,[ 62  89 606 502 112  88 122  83]
1679714456.882637,[ 59  86 494 530  96  89 141  83]
1679714456.897847,[ 66  93 495 552 100  93 149  83]
1679714456.920114,[ 68  91 495 584 106  90 143  81]
1679714456.942753,[ 71  74 510 574 107  99 137  80]
1679714456.959092,[ 66  78 502 626 116  89 127  76]
1679714456.981651,[ 68  97 620 599 133  80 110  75]
1679714457.003024,[ 63  94 626 631 136  78  98  73]
1679714457.017715,[ 70  97 620 703 140 107 102  77]
1679714457.040072,[ 67 104 618 721 136 110 103  76]
1679714457.064276,[ 65 105 649 677 144 105  99  74]
1679714457.079208,[ 64 100 570 614 147 106  87  65]
1679714457.100287,[ 65 113 550 589 154 111  96  65]
1679714457.130961,[ 68 109 537 470 152 102 102  80]
1679714457.154853,[ 67 109 596 495 156 110 102  80]
1679714457.175838,[ 68 102 537 510 141 117 107  84]
1679714457.182581,[ 68 103 571 515 127 115 126  92]
1679714457.205126,[ 69 106 591 482 108 113 113  94]
1679714457.220875,[ 67 106 597 475  92 103 112  85]
1679714457.242667,[ 70 105 502 478  92  82 118  89]
1679714457.268848,[ 69 110 531 438  95  77 121  87]
1679714457.280118,[ 71 102 444 508  87  82 131  94]
1679714457.326268,[ 69  83 485 534 103  78 130  92]
1679714457.334827,[ 64  83 520 571 114  80 120  84]
1679714457.340151,[ 62  75 516 580 116  83 115  83]
1679714457.378665,[ 68  77 513 620 119  88 107  86]
1679714457.38557,[ 67  77 584 564 122  82  76  69]
1679714457.407754,[ 67  76 556 515 110  90  86  63]
1679714457.422649,[ 66  96 584 563 120 124 109  73]
1679714457.445171,[ 68 115 612 501 115 125 117  78]
1679714457.460253,[ 68 115 624 512 119 127 122  82]
1679714457.482664,[ 67 117 600 616 150 132 128  86]
1679714457.505341,[ 67 121 650 716 163 125 121  87]
1679714457.527625,[ 61 111 625 682 150  90 101  76]
1679714457.54285,[ 59  93 650 760 159  98  95  75]
1679714457.573457,[ 51  97 627 786 170  97 104  67]
1679714457.580421,[ 47  92 659 699 148  94 106  74]
1679714457.602765,[ 53  86 580 654 137 106 124  89]
1679714457.641607,[ 57  93 528 632 131 101 133  93]
1679714457.643224,[ 55  95 514 547 118  86 129  90]
1679714457.662573,[ 55  88 513 510  97  79 118  88]
1679714457.68515,[ 78  91 451 599  94 110 190 119]
1679714457.707646,[ 73  90 452 542  88 112 215 116]
1679714457.722662,[ 72  73 491 597 112 117 214 116]
1679714457.745208,[ 74  74 490 650 124 119 216 116]
1679714457.76018,[ 82  86 483 662 135 121 228 126]
1679714457.782653,[ 64  93 515 599 131 118 177 100]
1679714457.805264,[ 62  92 508 588 131 118 134  89]
1679714457.829266,[ 63 102 493 549 121 112 131  91]
1679714457.842671,[ 62 110 492 477 108 113 128  95]
1679714457.86566,[ 52  99 499 483  95 112 108  83]
1679714457.887831,[ 52  97 454 479  91  87 107  83]
1679714457.912323,[ 56 107 618 536 101  73 113  97]
1679714457.941545,[ 55 105 629 589 106  77 120 104]
1679714457.943059,[ 65 102 586 605 111  94 149 114]
1679714457.962714,[ 71 103 587 555 110  96 164 126]
1679714457.985404,[ 69  99 594 599 106  90 152 119]
1679714458.000215,[ 70  91 414 583 102 109 182 118]
1679714458.022841,[ 68  86 393 545  86 115 187 112]
1679714458.045154,[ 55  80 454 574  81 102 174 103]
1679714458.061636,[ 52  86 456 589  82  97 160  87]
1679714458.085951,[ 54  84 443 535  82  98 165  87]
1679714458.105603,[ 55 111 517 521 115 105 144  79]
1679714458.127776,[ 61 114 546 581 126 104 132  81]
1679714458.151591,[ 62 113 513 634 134 112 129  76]
1679714458.166587,[ 59 110 500 641 142 126 142  85]
1679714458.187805,[ 57 111 551 656 142 129 136  82]
1679714458.204056,[ 59  89 508 721 122 115 135  82]
1679714458.225424,[ 57  82 440 656 120 121 130  77]
1679714458.247779,[ 61  82 508 573 115 119 129  84]
1679714458.262654,[ 58  77 542 613 104 110 120  75]
1679714458.287429,[ 57  92 525 588 119 109 119  73]
1679714458.315861,[ 55 102 595 487 120 116 102  79]
1679714458.322563,[ 48 103 611 448 111 105 105  75]
1679714458.345369,[ 51 103 578 517 110 111  95  67]
1679714458.367687,[ 53 117 599 532 133 105  94  77]
1679714458.382709,[ 55 115 604 629 125 103 115  83]
1679714458.405138,[ 57 100 510 661 120  94 109  73]
1679714458.43666,[ 60 103 520 665 123  89 107  79]
1679714458.44282,[ 57 118 546 665 137  74 108  77]
1679714458.465313,[ 56 101 506 599 113  82 116  67]
1679714458.496032,[ 61  96 475 560 112  83 102  65]
1679714458.502855,[ 57 109 502 664 134  77 142  77]
1679714458.52548,[ 55 107 581 725 145  79 145  72]
1679714458.555691,[ 55  92 536 740 152  78 145  71]
1679714458.564393,[ 55 134 562 812 162  71 131  71]
1679714458.585171,[ 59 139 613 771 167  76 134  79]
1679714458.607772,[ 56 129 586 753 158  79  94  69]
1679714458.622822,[ 56 130 508 765 156  84  89  71]
1679714458.645181,[ 56 149 561 699 133  82  86  70]
1679714458.684294,[ 57 115 525 644 123  80  86  69]
1679714458.689505,[ 64 107 437 681 120 100 142 100]
1679714458.707039,[ 66 111 545 659 111 116 151 110]
1679714458.727995,[ 68 115 522 599  92 113 151 112]
1679714458.758479,[ 66  94 455 668 106 117 152 111]
1679714458.765142,[ 62  94 445 674 111 119 156 111]
1679714458.787822,[ 66  87 464 641 110 110 122  98]
1679714458.802635,[ 67 108 382 539 102 113 117  85]
1679714458.825373,[ 64  99 409 582 116 117 120  81]
1679714458.847953,[ 73  95 413 577 124 126 126  86]
1679714458.862834,[ 75  99 483 582 133 128 123  84]
1679714458.887204,[ 65 107 542 689 149 118 105  66]
1679714458.907833,[ 65  86 505 716 152  89  94  62]
1679714458.92276,[ 66  86 526 663 149 103  88  61]
1679714458.945314,[ 68 102 540 666 139  97  88  72]
1679714458.967681,[ 71 109 494 670 135  97 107  79]
1679714458.98436,[ 68 101 486 568 127 100 104  77]
1679714459.005096,[ 69 103 494 551 122 115 106  74]
1679714459.035838,[ 79 108 466 574 114 104 116  94]
1679714459.042549,[ 69  96 437 514 116  98 124  85]
1679714459.06709,[ 66  87 462 493 115 100 110  82]
1679714459.096922,[ 63 105 389 511  93  97 112  79]
1679714459.118377,[ 57 100 377 512  99 107 105  80]
1679714459.125028,[ 48  97 428 507 107 115  99  62]
1679714459.147979,[ 51  92 464 546 106 116  95  66]
1679714459.170318,[ 59 108 471 587 118 114 101  73]
1679714459.185339,[ 59  96 518 575 121 115 104  72]
1679714459.207718,[ 64  94 562 610 117 111 117  75]
1679714459.230157,[ 66  95 522 615 109 101 120  78]
1679714459.245526,[ 67 101 483 546 100 103 111  77]
1679714459.267792,[ 65  91 467 507  64 115 108  78]
1679714459.29039,[ 67  85 469 510  65 121 107  84]
1679714459.322091,[ 64  84 411 477  66 107 104  86]
1679714459.337582,[ 57  80 400 541 102 105  96  81]
1679714459.350338,[ 58  87 467 583 176 106  91  79]
1679714459.365157,[ 52  81 431 536 178 100  88  73]
1679714459.387685,[ 53  85 375 538 178  95  83  68]
1679714459.410261,[ 57  85 437 523 179  95  79  64]
1679714459.425905,[ 57  91 537 482 166 102  80  69]
1679714459.447571,[ 55  93 505 519 119 105  84  67]
1679714459.470224,[ 53 104 621 531 121 103  77  65]
1679714459.493052,[ 55 110 627 523 126 120 100  70]
1679714459.516226,[ 55 118 598 591 138 121 112  69]
1679714459.538178,[ 59 116 574 578 140 130 122  81]
1679714459.546595,[ 68 112 615 642 141 128 137  93]
1679714459.575876,[ 71 100 537 753 160 122 145  97]
1679714459.590493,[ 71 102 625 785 174 108 151 100]
1679714459.606637,[ 72 103 660 767 176 116 152 100]
1679714459.629236,[ 70 101 607 782 174 105 149  92]
1679714459.650384,[ 65 106 699 752 156 106 140  86]
1679714459.672705,[ 78 106 723 775 135 141 166 108]
1679714459.687771,[ 92 164 711 854 158 182 196 128]
1679714459.710235,[ 97 225 696 938 153 187 196 133]
1679714459.725195,[ 96 229 709 943 153 187 193 132]
1679714459.748067,[ 99 226 646 967 161 190 196 136]
1679714459.778421,[ 88 225 635 913 162 174 187 119]
1679714459.78514,[ 74 201 597 867 131 127 154  99]
1679714459.80765,[ 62 127 617 782 147 113 146  89]
1679714459.838279,[ 69 128 633 730 143 110 157  92]
1679714459.846864,[ 69 135 563 653 138 118 175  89]
1679714459.867687,[ 75 144 590 617 163 111 163  99]
1679714459.890229,[ 70 151 553 584 168 116 164 101]
1679714459.905155,[ 74 154 566 665 169 126 173 112]
1679714459.929317,[ 68 151 599 811 191 127 170 111]
1679714459.951636,[ 62 141 595 812 191 114 151 105]
1679714459.965051,[ 61 153 523 781 165 127 150  95]
1679714459.987645,[ 63 132 537 811 187 132 133  82]
1679714460.010304,[ 61 127 497 739 179 129 140  90]
1679714460.032736,[ 74 126 416 636 184 126 143 102]
1679714460.047668,[ 70 161 427 650 193 131 157 106]
1679714460.070449,[ 76 159 514 734 201 132 194 132]
1679714460.092638,[ 73 149 531 661 170 123 194 136]
1679714460.107871,[ 81 181 553 790 202 112 184 127]
1679714460.130793,[ 74 197 590 754 181 121 181 120]
1679714460.161013,[ 86 174 588 747 179 118 163 119]
1679714460.167907,[ 87 161 559 658 177  94 131 113]
1679714460.19172,[ 88 160 551 722 182 107 156 110]
1679714460.212595,[ 84 123 529 569 155 108 154 110]
1679714460.227812,[ 85 108 516 575 163 101 152 106]
1679714460.250132,[ 80 107 507 537 153 136 163 109]
1679714460.272687,[ 77 102 556 628 166 148 175  96]
1679714460.287593,[ 77 101 535 581 165 140 152  98]
1679714460.310192,[ 75 114 502 575 153 141 147  94]
1679714460.349828,[ 79 101 540 588 143 149 153 126]
1679714460.351357,[ 78 125 578 728 160 116 143 129]
1679714460.371611,[ 77 128 492 704 148 111 113 125]
1679714460.393467,[ 78 131 508 709 147 127 114 123]
1679714460.4092,[ 75 122 523 737 150 129 121 126]
1679714460.462322,[ 67 161 452 768 166 132 145  96]
1679714460.463768,[ 61 146 410 676 148 130 177  98]
1679714460.467576,[ 53 164 558 711 184 128 173  94]
1679714460.49047,[ 52 168 565 735 190 121 177  94]
1679714460.51278,[ 56 198 595 696 187 123 188 103]
1679714460.527666,[ 61 168 585 634 182 112 163 105]
1679714460.550784,[ 68 170 596 695 192 112 135  96]
1679714460.572694,[ 71 157 452 640 156 112 145  96]
1679714460.587886,[ 71 162 476 622 148 114 144  99]
1679714460.610371,[ 75 121 469 672 147 113 135 100]
1679714460.632732,[ 71 132 529 763 165 119 136  98]
1679714460.648038,[ 74 125 510 693 158 123 134 107]
1679714460.687321,[ 69 119 520 710 173 119 139 110]
1679714460.692631,[ 74 103 520 691 171 107 146 113]
1679714460.708038,[ 72 100 486 658 167 103 133 103]
1679714460.730296,[ 71  85 464 607 156  94 132 101]
1679714460.753323,[ 67  98 455 646 154  99 130  89]
1679714460.767677,[ 73 102 464 598 141 104 119  85]
1679714460.790269,[ 68 102 407 632 152 126 108  76]
1679714460.812722,[ 71 115 445 626 152 127 122  75]
1679714460.827649,[ 71 121 416 587 129 131 128  72]
1679714460.858504,[ 71 115 492 620 136 125 122  70]
1679714460.88088,[ 75 128 569 670 133 128 119  65]
1679714460.887566,[ 79 135 599 647 119 107 118  68]
1679714460.910283,[ 78 123 577 664 114 114 115  77]
1679714460.940679,[ 78 115 617 686 133 111 122  83]
1679714460.96116,[ 74 110 621 599 121 112 126  82]
1679714460.97177,[ 64  91 527 529 109 105 133  91]
1679714460.994246,[ 74 100 525 682 147 102 133  94]
1679714461.015141,[ 70 100 520 702 156  88 122  88]
1679714461.030303,[ 73 102 506 663 141  89 128  90]
1679714461.061523,[ 74 109 429 681 141  80 146 100]
1679714461.075211,[ 78 107 468 759 157  77 142 102]
1679714461.098028,[ 68  88 426 577 120  71 143  98]
1679714461.114189,[ 70  92 408 520 114  69 142  93]
1679714461.13521,[ 69  90 352 531 116  84 144  93]
1679714461.158017,[ 75  80 468 563 122  90 134  88]
1679714461.174442,[ 69  80 427 463 111  90 138  81]
1679714461.196674,[ 63  91 445 467 105  96 135  80]
1679714461.235475,[ 64  95 508 549 105 108 145  85]
1679714461.237125,[ 69  96 560 622 116  96 142  94]
1679714461.255205,[ 65 112 504 573 128  90 127  86]
1679714461.279169,[ 74 124 531 566 123  90 123  83]
1679714461.300277,[ 79 115 525 566 132  86 118  84]
1679714461.316614,[ 74 114 508 537 138  77 103  78]
1679714461.33777,[ 68 114 496 437 148  92  81  59]
1679714461.362205,[ 74 115 547 466 147  92  98  72]
1679714461.383308,[ 73 103 505 510 152  94 119  93]
1679714461.397603,[ 72 104 491 571 154  95 125  96]
1679714461.414174,[ 74  99 455 551 162  97 130 105]
1679714461.435078,[ 87 102 494 588 146  90 133 117]
1679714461.465168,[ 84  94 426 561 141 124 148 126]
1679714461.474154,[ 80  89 448 558 142 126 162 119]
1679714461.504418,[ 85  88 494 539 156 132 160 122]
1679714461.525089,[ 81  97 521 589 147 129 161 116]
1679714461.534136,[ 78 125 628 701 181 130 164 112]
1679714461.571419,[ 75 119 661 745 182 114 144  96]
1679714461.578192,[ 72 117 671 712 178 118 127  89]
1679714461.594154,[ 66 122 638 730 165 108 138  85]
1679714461.615213,[ 71 112 636 718 155 117 143  85]
1679714461.639141,[ 57  75 468 605 109 109 140  77]
1679714461.654286,[ 52  70 381 574 107  94 134  77]
1679714461.675241,[ 61  73 364 598 108 102 144  91]
1679714461.697849,[ 64  66 385 564 104 113 133  99]
1679714461.714235,[ 76  68 373 570 117 107 137 114]
1679714461.73549,[ 84  71 355 597 146 117 141 115]
1679714461.757673,[ 88  93 380 594 143 116 143 113]
1679714461.780561,[ 86  93 468 596 161 102 118 107]
1679714461.802887,[ 83 137 577 636 160  92 119  97]
1679714461.826754,[ 72 146 574 589 154  89 110  82]
1679714461.858147,[ 69 148 641 624 133  98 108  89]
1679714461.85983,[ 71 138 632 605 128 111 111 102]
1679714461.877701,[ 69 142 595 635 122 108 107  93]
1679714461.894272,[ 74 111 467 636 128 134 119  98]
1679714461.916691,[ 72  97 443 613 122 141 126 105]
1679714461.93927,[ 68  87 393 566 118 123 124 101]
1679714461.954218,[ 66  85 406 620 135 112 117  87]
1679714461.975228,[ 71  90 506 556 121 131 127  94]
1679714461.999258,[ 65  71 555 521 112 110 137  97]
1679714462.014217,[ 76  82 600 574 126 101 149 108]
1679714462.035228,[ 81 113 682 562 122 111 146 104]
1679714462.059436,[ 77 126 718 558 127 109 148 104]
1679714462.103808,[ 70 125 626 620 147  92 134  98]
1679714462.110523,[ 77 129 579 601 151  90 112  96]
1679714462.119247,[ 66 123 565 607 146 104 131  90]
1679714462.141701,[ 56  97 497 625 153 100 140  96]
1679714462.155309,[ 55  82 433 597 140 108 143  97]
1679714462.177874,[ 58  73 432 582 126 108 145 103]
1679714462.201622,[ 54  70 477 634 128 115 154 107]
1679714462.215244,[ 54  81 449 585 128 107 118  91]
1679714462.239149,[ 54  88 428 596 127 123 109  87]
1679714462.254217,[ 55  82 492 600 119 118 104  86]
1679714462.282942,[ 61  92 508 587 108 132 135  90]
1679714462.314183,[ 63  96 513 539 102 137 128  80]
1679714462.315574,[ 65 108 546 572  93 135 133  87]
1679714462.344313,[ 66 107 518 519  87 116 134  89]
1679714462.357655,[ 69 111 466 542 120 116 136  88]
1679714462.374647,[ 67 104 461 583 136 104 114  84]
1679714462.402684,[ 60 100 407 612 146 100 128  83]
1679714462.425429,[ 63  86 497 614 157  96 124  76]
1679714462.43416,[ 63  96 483 627 159  97 126  77]
1679714462.455189,[ 62 100 478 660 150 117 147  82]
1679714462.477736,[ 68  98 525 623 151 116 151  89]
1679714462.494116,[ 72 103 574 595 138 108 139  90]
1679714462.515157,[ 71  95 452 603 134 117 138  94]
1679714462.537875,[ 70  82 481 583 136 117 135  92]
1679714462.576894,[ 69 103 462 537 118 111 121  85]
1679714462.590944,[ 59 106 453 570  96 116 104  71]
1679714462.597707,[ 54 101 397 549  99 119 103  71]
1679714462.614116,[ 54 101 471 559 105 113  99  67]
1679714462.636881,[ 57 104 499 568 107 110  95  62]
1679714462.657703,[ 62  76 528 606 106 117  95  68]
1679714462.68016,[ 64  72 547 580 109 106 101  75]
1679714462.718222,[ 67  97 563 598 122 102 103  76]
1679714462.726704,[ 67  97 595 549 118 103 108  79]
1679714462.740231,[ 68  97 600 611 107 107 124  88]
1679714462.75735,[ 65 104 617 532 115  89 130  97]
1679714462.777705,[ 63 108 549 532 119  87 135  96]
1679714462.800211,[ 65  87 546 521 115  81 132  97]
1679714462.816617,[ 67  89 487 526 108  96 137 115]
1679714462.848501,[ 74  90 441 471 121 106 142 115]
1679714462.860331,[ 78 114 450 493 120 106 160 118]
1679714462.884503,[ 76 114 498 465 115 105 154 116]
1679714462.921682,[ 72 116 491 453 100 103 153 113]
1679714462.923074,[ 68 114 557 485 111 105 150  92]
1679714462.936669,[ 64 115 588 488 100  90 135  86]
1679714462.965142,[ 61  91 563 474 114  88  95  74]
1679714462.980723,[ 67  82 558 466 112  91 107  74]
1679714462.996618,[ 67  92 601 632 115 115 115  73]
1679714463.017867,[ 68 100 537 669 107 106 121  73]
1679714463.040153,[ 59  99 492 705 113 109 121  76]
1679714463.057228,[ 52  94 467 699 100 105 117  70]
1679714463.085242,[ 50  94 433 744 109 108 112  66]
1679714463.101643,[ 48  80 442 682 118  97 111  68]
1679714463.116625,[ 53  69 484 722 132  99 107  73]
1679714463.145426,[ 57  77 498 737 141 100 109  73]
1679714463.160183,[ 60  87 526 791 163 108 118  76]
1679714463.182796,[ 60  94 559 759 165 102 110  79]
1679714463.197597,[ 61 101 503 732 170 101 107  76]
1679714463.220626,[ 73 113 444 646 166 101 117  95]
1679714463.237029,[ 72 107 463 664 179 114 150 100]
1679714463.257739,[ 73  98 497 588 161 111 151  98]
1679714463.280739,[ 70  98 519 572 154 113 158  99]
1679714463.296613,[ 70  92 586 617 159 104 167 105]
1679714463.317603,[ 61 106 597 745 172  98 153  92]
1679714463.340225,[ 60 105 567 670 157  87 118  80]
1679714463.364529,[ 62 106 540 676 152  88 106  85]
1679714463.377879,[ 64 106 545 668 149  86 103  87]
1679714463.407721,[ 61 109 506 608 136  82  84  80]
1679714463.430955,[ 52  85 493 450 109  78  79  71]
1679714463.437636,[ 63  83 522 460  89  75  82  76]
1679714463.475969,[ 60 103 506 446  87  94 108  67]
1679714463.492389,[ 60 105 493 551  98  95  97  60]
1679714463.513362,[ 63 102 500 510  94 103 112  60]
1679714463.520222,[ 61 101 519 574  95 102 116  56]
1679714463.536599,[ 49 111 545 575  99 115 119  53]
1679714463.559234,[ 47  95 580 619 102 104 127  78]
1679714463.58018,[ 51  85 532 581 101 103 137  89]
1679714463.596577,[ 48  88 540 612 107  95 128  89]
1679714463.61926,[ 51  92 586 524 103  97 127  92]
1679714463.647662,[ 58  77 522 544 105  96 126 100]
1679714463.656708,[ 59  77 483 531 104 102 125  88]
1679714463.679358,[ 58  80 476 466 100 103 132  85]
1679714463.700325,[ 59  84 478 605 120 108 128  86]
1679714463.724251,[ 59  92 423 697 143 119 139  87]
1679714463.745277,[ 64 112 490 692 142 105 138  86]
1679714463.76922,[ 63 125 500 685 141  89 114  83]
1679714463.776698,[ 58 126 587 740 143  89  94  72]
1679714463.797703,[ 58 125 594 606 120  95 101  70]
1679714463.820349,[ 66 118 558 512  90  80  91  85]
1679714463.842637,[ 60 105 530 541 104  83  91  80]
1679714463.857748,[ 58  99 596 565 109  89  88  79]
1679714463.880268,[ 63  97 533 512 102 106 102  86]
1679714463.90272,[ 68  90 489 522 100 100  99 102]
1679714463.91778,[ 60  84 507 585 119 101  96  84]
1679714463.940819,[ 56  78 526 525 101  97  89  82]
1679714463.962619,[ 54  68 468 540  94  99 106  86]
1679714463.977936,[ 52  70 448 548 104 106 116  82]
1679714464.00023,[ 45  73 496 604 123 112 144  68]
1679714464.024126,[ 47  69 497 524 111 110 143  67]
1679714464.045198,[ 49  75 495 590 118 110 144  66]
1679714464.069572,[ 52  69 464 597 138 106 143  74]
1679714464.091682,[ 55  77 500 657 146  88 129  82]
1679714464.099551,[ 57  74 496 616 141  75  99  84]
1679714464.120242,[ 61  77 492 753 140  79 100  93]
1679714464.150368,[ 58  70 462 698 138  84 110 100]
1679714464.159167,[ 58  75 473 635 116  90 114  94]
1679714464.180161,[ 59  74 505 563 104  83 109  93]
1679714464.202775,[ 59  82 515 596 101  88 104  89]
1679714464.219744,[ 54 134 535 463 128  94  97  78]
1679714464.240151,[ 56 135 588 517 137  95  86  70]
1679714464.263051,[ 56 135 584 523 143  97  66  62]
1679714464.279123,[ 67 131 598 702 173  96 101  64]
1679714464.30032,[ 65 131 563 680 174  95 103  66]
1679714464.322658,[ 67  85 547 647 149  93 106  67]
1679714464.35479,[ 74  84 482 671 145  90 125  75]
1679714464.367677,[ 79  93 461 764 147  78 129  79]
1679714464.38284,[ 68  92 421 632 105  82 119  76]
1679714464.399158,[ 67  88 443 642 126  77 114  74]
1679714464.421622,[ 64  81 514 672 133  65 112  76]
1679714464.442621,[ 60  87 509 612 127  82  92  71]
1679714464.459111,[ 55  79 547 548 121  91  90  71]
1679714464.480196,[ 60  94 589 559 144  92  88  73]
1679714464.502708,[ 59  91 567 504 131 102 108  73]
1679714464.519227,[ 71  94 492 467 130 119 117  87]
1679714464.540299,[ 66  87 508 567 135 113 120  89]
1679714464.579004,[ 64  81 522 516 134 108 123  91]
1679714464.601591,[ 58  61 424 475 106 108 116  86]
1679714464.603172,[ 68  67 412 499  93 115 104  95]
1679714464.62422,[ 55  64 444 529  87  97 101  86]
1679714464.637689,[ 57  64 489 462  80  89  94  85]
1679714464.667783,[ 60  75 459 502  97  90  88  84]
1679714464.682707,[ 59  93 499 509 109  85  85  82]
1679714464.699209,[ 51  97 507 511 111 102 100  70]
1679714464.721381,[ 61  99 484 488 108 106  96  75]
1679714464.742711,[ 60  99 486 458 103 108 104  75]
1679714464.765156,[ 60 107 604 509 110 109 101  75]
1679714464.795576,[ 65 100 578 490  99 123 120  76]
1679714464.811622,[ 69  90 560 551 102 116 123  79]
1679714464.825243,[ 62  87 560 556 107 122 134  75]
1679714464.840319,[ 61  85 600 605 124 126 156  81]
1679714464.886298,[ 60  83 484 619 124 131 156  83]
1679714464.90192,[ 64  72 508 696 133 121 141  82]
1679714464.903124,[ 66  86 610 702 141  98 125  80]
1679714464.922654,[ 67  92 657 747 139  95 127  80]
1679714464.94555,[ 68  97 588 720 137  92  99  75]
1679714464.967774,[ 72  85 624 642 122  79  97  76]
1679714464.982599,[ 63  87 590 611 129  98  99  75]
1679714465.005231,[ 54  77 505 569 126  97  98  71]
1679714465.020167,[ 59  72 472 496 121  96  91  75]
1679714465.050167,[ 58  65 500 467 111  99  89  75]
1679714465.065347,[ 63  75 447 474 111 102  92  81]
1679714465.080114,[ 68  77 447 429 102  86  88  85]
1679714465.104108,[ 69  79 557 503 109  95 102  89]
1679714465.125222,[ 70  83 567 504 112  98 129  92]
1679714465.140954,[ 69  90 517 564 116  89 126  90]
1679714465.179984,[ 63  83 500 635 128  94 127  82]
1679714465.185224,[ 61  81 567 658 122  86 131  80]
1679714465.200166,[ 72  84 470 642 101  78 157  98]
1679714465.223197,[ 71  85 446 712 115  75 145 103]
1679714465.245148,[ 73  90 467 721 120  78 150 104]
1679714465.26036,[ 72  91 453 653 112  88 151 107]
1679714465.28267,[ 72 102 446 718 128  89 152 107]
1679714465.305315,[ 72 112 452 702 139  88 122  94]
1679714465.320422,[ 65 107 445 689 147  85  99  76]
1679714465.342736,[ 63  96 464 641 139  95 104  76]
1679714465.365156,[ 64  95 551 743 143  85  97  76]
1679714465.389318,[ 62  83 498 666 130  86  90  77]
1679714465.402791,[ 51  62 473 618 126 122 120  70]
1679714465.425159,[ 55  89 495 679 112 129 136  76]
1679714465.440115,[ 62 109 459 760 116 126 131  77]
1679714465.462704,[ 62 111 455 673 123 131 132  67]
1679714465.485225,[ 60 111 472 661 124 127 130  64]
1679714465.501596,[ 67 137 470 806 144 102 110  73]
1679714465.522662,[ 67 127 446 715 146 101  93  71]
1679714465.545317,[ 60 118 547 627 149  91  90  68]
1679714465.560189,[ 59 119 491 624 138  76  86  70]
1679714465.584187,[ 59 122 545 651 147  86  87  68]
1679714465.621524,[ 51  95 592 491 126  86  74  60]
1679714465.623133,[ 55  86 577 459 120  94 158  86]
1679714465.658558,[ 64  78 483 477 109 102 159  90]
1679714465.665256,[ 62  69 477 515 108 105 160  87]
1679714465.68769,[ 62  71 443 549  93 100 162  90]
1679714465.711602,[ 67  81 371 563  88  95 160  89]
1679714465.733103,[ 66 102 498 647 107  93  88  69]
1679714465.748302,[ 59 113 522 702 123  93  88  68]
1679714465.762719,[ 60 115 540 720 147  98  87  67]
1679714465.785155,[ 60 110 590 724 158 101  85  63]
1679714465.807681,[ 55 110 583 717 160 109  98  76]
1679714465.822767,[ 48  97 509 651 149  99 111  79]
1679714465.845792,[ 49  93 483 601 143  99 117  83]
1679714465.867952,[ 50  90 484 581 145  93 119  88]
1679714465.882614,[ 51  90 450 506 138  91 121  88]
1679714465.906657,[ 58  79 460 499 139  92 120  84]
1679714465.936187,[ 63  71 451 573 140  96 102  84]
1679714465.943376,[ 60  63 480 604 149  97  92  75]
1679714465.980904,[ 62  64 440 640 148  97  90  72]
1679714465.987635,[ 61  69 453 731 148  99  86  73]
1679714466.011661,[ 55  82 499 738 148 105  79  66]
1679714466.026866,[ 48  89 492 682 148 101  76  55]
1679714466.047663,[ 52  92 459 617 132  95  74  59]
1679714466.062714,[ 48  91 559 543 103  97  72  62]
1679714466.092717,[ 61  92 549 422  90 123  86  79]
1679714466.107681,[ 58  84 517 395  95 106  81  76]
1679714466.122799,[ 64  80 530 405  95 104  77  77]
1679714466.145877,[ 65  72 548 460 108 106  87  76]
1679714466.175904,[ 67  71 470 454 109 107  98  79]
1679714466.190203,[ 56  84 469 513 125  81  89  62]
1679714466.205136,[ 55  80 462 626 134  83  91  65]
1679714466.237295,[ 52  80 482 624 131  80  91  62]
1679714466.24264,[ 51  79 468 647 126  77  81  63]
1679714466.282293,[ 48  90 507 642 126  72  76  56]
1679714466.289094,[ 47  81 454 593 127  78  75  55]
1679714466.310367,[ 48  82 481 496 116  77  88  58]
1679714466.325119,[ 55  77 470 485 113  98 120  71]
1679714466.347931,[ 57  81 480 394 107 107 128  79]
1679714466.36295,[ 59  75 436 456 106 111 152  87]
1679714466.385225,[ 58  80 551 581 120 100 155  90]
1679714466.407743,[ 61  82 533 566 117 106 152  94]
1679714466.422587,[ 55  90 534 678 117  90 130  85]
1679714466.445147,[ 49  92 539 693 117  80 123  76]
1679714466.469127,[ 46  99 538 694 132  79  98  70]
1679714466.490194,[ 51  87 541 679 122  75  97  69]
1679714466.50539,[ 51  86 542 690 135  63  89  69]
1679714466.535941,[ 56  80 532 609 139  63  92  72]
1679714466.542682,[ 58  80 531 602 138  68 100  74]
1679714466.565258,[ 61  81 627 605 140  88 113  78]
1679714466.587745,[ 71  93 566 621 140  90 112  92]
1679714466.602729,[ 88  94 550 582 121  94 116 103]
1679714466.625458,[ 84  93 576 603 126 106 126 105]
1679714466.647678,[ 85  98 569 628 133 117 123 106]
1679714466.670484,[ 85  97 490 620 111 104 107 100]
1679714466.685113,[ 83  92 452 497  93 105 108  92]
1679714466.70915,[ 63  90 449 505  97 117 129  86]
1679714466.73027,[ 65 105 455 460  98 114 124  83]
1679714466.745564,[ 64 106 577 460  88 105 120  79]
1679714466.767772,[ 66 101 540 433  95 100 120  80]
1679714466.790352,[ 56 100 525 511 129 100 122  75]
1679714466.82161,[ 75 103 612 555 132  94  99  77]
1679714466.836341,[ 73  87 603 575 132  87 102  75]
1679714466.850247,[ 79  81 493 619 142  82 104  84]
1679714466.865301,[ 78  82 557 671 144  85 109  85]
1679714466.889301,[ 87  96 608 744 156 114 113  90]
1679714466.910188,[ 72  93 545 754 155 107 110  78]
1679714466.925162,[ 75 102 590 794 159 115 124  91]
1679714466.947902,[ 66 100 653 781 158 117 124  86]
1679714466.970233,[ 67 106 652 723 156 113 121  85]
1679714466.985509,[ 55  91 648 639 128  80 116  77]
1679714467.016155,[ 58  90 622 613 126  83 114  81]
1679714467.030196,[ 50  90 565 556 118  67  87  67]
1679714467.045175,[ 58  93 555 542 106  90 103  76]
1679714467.076207,[ 62  80 587 555 111  91 117  99]
1679714467.098478,[ 68  83 576 581  97  96 125 102]
1679714467.10522,[ 63  88 582 662 111 100 154 110]
1679714467.143486,[ 66  85 603 667 115 109 168 114]
1679714467.1502,[ 65  84 603 713 153  89 156 108]
1679714467.167364,[ 62  89 537 713 152  89 144  88]
1679714467.187756,[ 55  86 577 655 153  84 133  81]
1679714467.210561,[ 66  94 603 577 144  91 111  66]
1679714467.225295,[ 67  96 581 601 148  91  97  63]
1679714467.249125,[ 64  92 564 480 115  95 103  64]
1679714467.270291,[ 61  93 548 498 108 102 121  71]
1679714467.285119,[ 66 114 521 545 119 105 123  75]
1679714467.307898,[ 59 103 553 611 127 102 114  86]
1679714467.332373,[ 58  97 551 547 111  96 120  91]
1679714467.345199,[ 57  97 529 569 107  94 123  90]
1679714467.376748,[ 56 107 606 544 109  86 104  84]
1679714467.398469,[ 53  81 563 527  96  82 102  84]
1679714467.405173,[ 47 103 535 464 100  92 106  67]
1679714467.443392,[ 53 109 532 560 105  99 103  80]
1679714467.450161,[ 58 116 539 638 159 105 104  86]
1679714467.465376,[ 62 108 508 743 175 111 141  91]
1679714467.487681,[ 60 116 504 734 187 119 150  92]
1679714467.510146,[ 62 114 556 780 186 119 151  96]
1679714467.5253,[ 60 110 551 816 189 119 156  85]
1679714467.549146,[ 60 105 534 848 151 112 168  90]
1679714467.570542,[ 59 108 529 775 136 108 143  89]
1679714467.592856,[ 65 114 569 808 132 123 135  86]
1679714467.624981,[ 73 102 534 776 131 107 145  94]
1679714467.630227,[ 71 101 516 706 125 107 142  88]
1679714467.653077,[ 71 103 579 579 121 120 146  84]
1679714467.6767,[ 70 101 550 616 131 137 154  89]
1679714467.698544,[ 76  87 515 581 131 124 156  94]
1679714467.713219,[ 68  90 513 602 140 130 140  91]
1679714467.727737,[ 68  96 579 756 150 133 146  95]
1679714467.750277,[ 75  99 507 768 161 128 137  96]
1679714467.773108,[ 75 102 543 755 151 108 130  96]
1679714467.787792,[ 66 108 553 749 143 107 132  96]
1679714467.820249,[ 64 112 637 689 128  95 128  87]
1679714467.832719,[ 66 110 682 514 117  88 134  97]
1679714467.864108,[ 66 191 754 604 129  94 141 105]
1679714467.870123,[ 69 214 766 614 137 112 144 118]
1679714467.900854,[ 69 216 760 633 136 110 145 119]
1679714467.907857,[ 71 216 734 661 137 119 163 122]
1679714467.953819,[ 75 244 669 767 161 124 146 115]
1679714467.977969,[ 67 223 615 761 137 117 122 102]
1679714467.97896,[ 63 201 594 720 124 113 115  83]
1679714467.991574,[ 62 206 632 786 154 121 112  77]
1679714468.012736,[ 65 219 614 832 195 115 100  80]
1679714468.027681,[ 63 216 642 752 198 114  96  84]
1679714468.050117,[ 60 186 603 669 205 126 122  86]
1679714468.072821,[ 63 185 612 709 204 117 124  99]
1679714468.087599,[ 59 177 580 682 187 104 117  96]
1679714468.110179,[ 56 153 570 653 144 104 106  90]
1679714468.132959,[ 53 114 561 631 122 103 123  87]
1679714468.147821,[ 53 103 622 662 138  96 107  87]
1679714468.178664,[ 50 107 622 630 136  91  99  71]
1679714468.192722,[ 55 117 647 613 130  97 104  79]
1679714468.209121,[ 67 125 637 612 129 100 145 103]
1679714468.231592,[ 66 126 614 619 117  95 151 100]
1679714468.252629,[ 66 131 646 655  88  81 146  98]
1679714468.26764,[ 67 128 630 751 106  84 145  97]
1679714468.297943,[ 64 120 589 717 106  85 142  92]
1679714468.312617,[ 51 175 626 667 108  96 111  69]
1679714468.327766,[ 47 171 622 674 115  91  95  66]
1679714468.350181,[ 56 164 545 706 143  91 104  68]
1679714468.372675,[ 53 164 495 600 141 101 116  67]
1679714468.387975,[ 54 187 632 627 142 100 121  67]
1679714468.410196,[ 53 146 643 659 142  94 117  61]
1679714468.432664,[ 53 150 644 664 156  94 117  60]
1679714468.447671,[ 58 151 674 632 128  96 112  70]
1679714468.486033,[ 58 168 741 619 119  93 107  74]
1679714468.49271,[ 60 135 655 567 115 106 111  74]
1679714468.507692,[ 59 119 560 568 110 105 136  82]
1679714468.530153,[ 59 119 570 522  87 104 136  81]
1679714468.552768,[ 46 120 509 495  88 106 131  67]
1679714468.575239,[ 54  87 481 535  95  98 129  68]
1679714468.590387,[ 61 137 554 532 110  82 157  93]
1679714468.612874,[ 61 152 725 577 139  90 139  89]
1679714468.643875,[ 62 166 707 651 137 104 130  91]
1679714468.650326,[ 69 172 738 647 148 102 138 100]
1679714468.672803,[ 66 182 755 631 147 103 137  97]
1679714468.695173,[ 67 147 697 637 139 117 132  96]
1679714468.710333,[ 72 129 518 648 120 107 139 103]
1679714468.732698,[ 75 120 539 680 161  99 145 103]
1679714468.763409,[ 71 110 594 751 159 103 157 100]
1679714468.770426,[ 76  93 528 841 168 114 166 110]
1679714468.792772,[ 77 123 550 905 170  97 142  93]
1679714468.815257,[ 75 175 574 894 184 100 131  88]
1679714468.830247,[ 76 168 535 874 158 102 130  87]
1679714468.852713,[ 72 167 463 827 157 107 120  79]
1679714468.875152,[ 70 168 528 735 146  94 129  81]
1679714468.890168,[ 69 172 562 813 162  97 127  84]
1679714468.912641,[ 64 119 578 762 134  91 120  81]
1679714468.935208,[ 66 120 599 707 137  97 126  86]
1679714468.95164,[ 74 124 569 696 126  86 121 101]
1679714468.980909,[ 73 122 593 749 134  94 116  92]
1679714468.9953,[ 68  89 640 609 120  92 113  88]
1679714469.011604,[ 70  89 593 618 129  94 112  85]
1679714469.032755,[ 68  85 577 625 114  85  98  78]
1679714469.063402,[ 60  76 613 752 121 103  92  58]
1679714469.070266,[ 59  83 530 716 109  97  90  59]
1679714469.09294,[ 66 108 368 664 102 105 102  72]
1679714469.115156,[ 67 113 427 705  93 120 112  76]
1679714469.130415,[ 63 116 493 742 101 122 119  77]
1679714469.152781,[ 67 128 458 594  98 110 119  85]
1679714469.175212,[ 65 139 511 635 104 111 108  88]
1679714469.192312,[ 57 121 570 711  98 102 106  81]
1679714469.212696,[ 61 124 608 749 123 100 101  83]
1679714469.2352,[ 61 158 614 704 116  99  95  81]
1679714469.250307,[ 57 153 623 772 127  96  89  81]
1679714469.272662,[ 61 145 583 789 127  99  89  78]
1679714469.319102,[ 62 156 574 821 145  99  87  83]
1679714469.320732,[ 67 159 515 739 123 101 152 102]
1679714469.332685,[ 81 123 441 715 120  89 172 109]
1679714469.355228,[ 78 115 430 620 104  95 173 102]
1679714469.370188,[ 73 110 454 557 105  87 171  98]
1679714469.394332,[ 75 104 424 479  82 101 166  94]
1679714469.423383,[ 67  92 388 468  87  92 131  76]
1679714469.430161,[ 63  91 451 565  97  98 105  75]
1679714469.452769,[ 63  94 438 597 118 105 100  74]
1679714469.491561,[ 64  98 452 711 122 105  97  74]
1679714469.493056,[ 64  93 418 680 129 101  99  72]
1679714469.528417,[ 62  95 434 699 135 102  70  67]
1679714469.53517,[ 49  91 364 728 132 104  82  56]
1679714469.574181,[ 60  94 381 698 119  97 125 105]
1679714469.575601,[ 60  92 410 551 111 107 141 112]
1679714469.595526,[ 55  90 543 584 103 103 146 115]
1679714469.618267,[ 55 104 538 748 100  97 147 114]
1679714469.633491,[ 55 121 599 712 109 101 151 117]
1679714469.655238,[ 43 128 672 764 124  98 123  80]
1679714469.677678,[ 53 126 659 785 139  94 108  88]
1679714469.69264,[ 57 122 583 777 142  88  98  83]
1679714469.715195,[ 63 110 593 621 145  87  92  87]
1679714469.737927,[ 73  96 547 639 141  73  77  98]
1679714469.752667,[ 79  93 600 685 154  97  78 104]
1679714469.775203,[ 72  98 574 669 147  92  84  94]
1679714469.810265,[ 72  96 545 632 142 104 114 110]
1679714469.812832,[ 71  90 548 605 129 103 127 112]
1679714469.835259,[ 61  88 595 612 143 111 127  99]
1679714469.857795,[ 54  99 511 483 108  90 121  88]
1679714469.872701,[ 54  93 543 451 100 103 121  92]
1679714469.896781,[ 62  96 565 515 110  91 101  82]
1679714469.917741,[ 58 101 568 598 141  98  94  74]
1679714469.932732,[ 60 102 571 552 133 115  90  80]
1679714469.955318,[ 60  83 511 657 140 112  93  81]
1679714469.98608,[ 58  86 494 782 148 100  82  71]
1679714469.992651,[ 49  91 495 777 169 121  86  69]
1679714470.017898,[ 61  94 520 794 154 115  88 100]
1679714470.037674,[ 63  93 531 889 153  98  92 100]
1679714470.068355,[ 60  92 566 893 176  98  91 100]
1679714470.075063,[ 65  85 581 789 172  93  91 103]
1679714470.097826,[ 64  77 546 779 146  63  80  98]
1679714470.128436,[ 50  87 567 727 145  73  72  65]
1679714470.135233,[ 61  95 591 563 137  80  91  71]
1679714470.15766,[ 62  91 557 470  94  86  93  69]
1679714470.172606,[ 65  92 498 494  84  89  99  72]
1679714470.196598,[ 65  97 548 561 101  92 100  77]
1679714470.226322,[ 69  77 527 561 107  96 111  90]
1679714470.240214,[ 71  69 469 615 125  94  96  92]
1679714470.255207,[ 73  79 494 587 126  95  96  97]
1679714470.277765,[ 71  86 510 570 130  94  97  92]
1679714470.292663,[ 72  79 553 548 125  96 108  96]
1679714470.316631,[ 72  90 590 586 151  88  95  90]
1679714470.33767,[ 60  94 581 586 172 116  98  87]
1679714470.352651,[ 59  86 551 594 175 126 118  87]
1679714470.37664,[ 56  80 538 674 175 130 118  88]
1679714470.414573,[ 55  90 543 641 172 127 109  82]
1679714470.415756,[ 57  87 451 604 143 137 116  84]
1679714470.43521,[ 52  82 470 571  92 110 112  71]
1679714470.457671,[ 52  85 582 574 105  92  89  71]
1679714470.480189,[ 54  90 587 482 109  86  79  69]
1679714470.495227,[ 50  86 522 534 126  90  76  65]
1679714470.517691,[ 47  91 630 614 144  64  66  56]
1679714470.540419,[ 50  90 657 636 160  75  63  60]
1679714470.571054,[ 70  99 576 670 148  95  78  76]
1679714470.577648,[ 71 100 579 780 152  99  84  88]
1679714470.600256,[ 70  98 649 757 149  95  87  89]
1679714470.615305,[ 70  91 582 680 126  96  84  91]
1679714470.637822,[ 78  99 500 683 111  89  96  97]
1679714470.660376,[ 60  93 483 666 109  66  85  80]
1679714470.682704,[ 93  91 504 540 100  66  81  77]
1679714470.71346,[116  85 387 557 104  68  84 104]
1679714470.7285,[117  84 328 699 111  79  97 111]
1679714470.735159,[114  75 353 696 126  84  97 112]
1679714470.757714,[116  67 369 699 134  88 106 119]
1679714470.788869,[ 93  64 337 683 130  88 106 113]
1679714470.802699,[ 68  70 385 646 111  89 101  94]
1679714470.817905,[ 65  79 444 490 100  84  98  82]
1679714470.840173,[ 63  85 437 498  81  92  90  75]
1679714470.855417,[ 63  96 457 509  91 107  89  66]
1679714470.877674,[ 66 106 566 575  98 104  96  75]
1679714470.900213,[ 63 108 560 620 101 107 101  72]
1679714470.940579,[ 68 102 507 632 107 111  98  76]
1679714470.942151,[ 63 101 543 620 123  98  93  76]
1679714470.960302,[ 60 108 545 640 126  94  85  79]
1679714470.975192,[ 51  97 543 619 132  98  79  66]
1679714470.997667,[ 53  92 531 596 128  92  77  64]
1679714471.028469,[ 60  88 533 627 127  94  84  81]
1679714471.035198,[ 62  81 525 755 152 104  85  87]
1679714471.057683,[ 61  70 574 734 145  90  88  86]
1679714471.080326,[ 60  70 507 775 138  91  84  87]
1679714471.095171,[ 59  74 537 767 139  89  80  90]
1679714471.11766,[ 53  83 544 729 140  85  78  71]
1679714471.140577,[ 52  85 499 556  92  75  85  61]
1679714471.162652,[ 59  73 416 552  78  83  90  69]
1679714471.193379,[ 61  89 379 660 130  81  93  70]
1679714471.208694,[ 59 105 318 682 153  84  92  65]
1679714471.215246,[ 51  99 297 680 151  77  79  64]
1679714471.263213,[ 58 100 378 685 153  67  75  69]
1679714471.264669,[ 56 102 426 696 155  77  73  67]
1679714471.275218,[ 58 104 459 588 121  93  76  68]
1679714471.306781,[ 59  84 506 606 102  93  82  78]
1679714471.328451,[ 65  85 542 596  98 103  96  87]
1679714471.335236,[ 60  81 495 587  93 112  99  84]
1679714471.357644,[ 60  81 467 544  91 108 109  87]
1679714471.380169,[ 59  63 428 544  81  94 113  89]
1679714471.395211,[ 59  71 466 570  79  95 118  82]
1679714471.425244,[ 55  75 441 577  86  86 111  76]
1679714471.440238,[ 51  77 450 596  89  73 101  73]
1679714471.470941,[ 46  83 433 643  93  81 101  74]
1679714471.493364,[ 47  84 551 678 130 105 105  72]
1679714471.525539,[ 52  82 467 624 137 108 102  76]
1679714471.53962,[ 66  93 482 653 147 113 116  94]
1679714471.554757,[ 78  87 463 628 146 121 138 112]
1679714471.575886,[ 75  87 491 639 153 110 129 106]
1679714471.590922,[ 74  90 388 529 126  89 120 104]
1679714471.605113,[ 70  88 437 576 125  84 127 107]
1679714471.62173,[ 54  67 422 566 111  76 113  88]
1679714471.651113,[ 45  72 457 631 122  83  88  65]
1679714471.657984,[ 52  71 445 606 123 100 125  91]
1679714471.680179,[ 55  61 409 641 123  99 130  96]
1679714471.70274,[ 55  59 366 661 121  99 117  88]
1679714471.718038,[ 58  76 463 694 152  99 117  89]
1679714471.764041,[ 58  92 514 699 144  87 116  91]
1679714471.765636,[ 62  92 496 661 135  90  82  71]
1679714471.785226,[ 67  94 487 623 129  87  78  82]
1679714471.80843,[ 70  92 565 532 115  89  81  84]
1679714471.822737,[ 67  93 556 564  88  91  82  86]
1679714471.839199,[ 63  76 498 537  96 104 118  96]
1679714471.860323,[ 63  70 495 647 117  90 115  99]
1679714471.89106,[ 61  68 527 690 124  89 111  97]
1679714471.897887,[ 58  84 514 732 131  86 109  95]
1679714471.920167,[ 59  73 494 706 124  84 108  93]
1679714471.942733,[ 63  79 499 723 124  62  68  83]
1679714471.957627,[ 53  77 493 641 104  54  61  67]
1679714471.980321,[ 46  87 497 828 134  81  68  51]
1679714472.003129,[ 52  87 533 801 134  87  74  56]
1679714472.01912,[ 54  98 492 750 134 104  89  62]
1679714472.041024,[ 56  92 487 712 126 105 103  69]
1679714472.062656,[ 58  98 507 734 141 107 110  77]
1679714472.085223,[ 64  92 500 463 105 110 128  86]
1679714472.115862,[ 64  86 408 458 102 108 132  89]
1679714472.122608,[ 61  70 399 480 104  95 125  86]
1679714472.137725,[ 54  84 375 566 116 102 112  77]
1679714472.160185,[ 64  77 369 558 108 109 114  84]
1679714472.182677,[ 55  82 370 684 145  88  92  75]
1679714472.197947,[ 56  82 445 696 151  86  81  67]
1679714472.22022,[ 59  81 586 724 152  91  82  66]
1679714472.242667,[ 60  70 595 684 147  84  77  64]
1679714472.257857,[ 48  87 598 654 142  69  59  43]
1679714472.280175,[ 53  84 662 637 127  70  65  60]
1679714472.310963,[ 53  83 594 690 152  85  89  70]
1679714472.317692,[ 55  89 448 746 162  85 132  87]
1679714472.372318,[ 55  88 456 730 159  87 143  97]
1679714472.373905,[ 65  85 462 762 166  90 142 100]
1679714472.39336,[ 61  91 463 762 168  86 137  91]
1679714472.400079,[ 60  87 457 689 135  87 124  86]
1679714472.4229,[ 60  90 513 586 113  83  74  69]
1679714472.445154,[ 56  94 508 623 130  84  50  52]
1679714472.460884,[ 46  85 503 610 131  80  55  50]
1679714472.482696,[ 49  85 408 468 111  87  70  55]
1679714472.505512,[ 53  88 421 485 113  80  79  65]
1679714472.527732,[ 62  84 395 558 118 100 101  83]
1679714472.542829,[ 73  85 394 503 104 109 135 107]
1679714472.565134,[ 80  88 425 470  87 120 141 120]
1679714472.580964,[ 79  76 426 469  74 122 155 121]
1679714472.602644,[ 75  72 451 564  86 117 156 117]
1679714472.626592,[ 64  73 497 515  96  97 145 106]
1679714472.64925,[ 54  75 583 655 117  84 114  83]
1679714472.671009,[ 54  81 569 655 122 100 144  82]
1679714472.685208,[ 58  86 574 745 126 106 132  86]
1679714472.701748,[ 56  90 606 655 127 103 127  85]
1679714472.730881,[ 61  90 577 781 125 105 136  92]
1679714472.745496,[ 71  92 500 672 108 129 163 102]
1679714472.760121,[ 64  84 500 674 102 104 139  89]
1679714472.78273,[ 68  86 493 575 106  93 136  97]
1679714472.813454,[ 66  81 470 654 100  97 141  94]
1679714472.820113,[ 71  83 536 569 114 109 139  91]
1679714472.850667,[ 65  80 533 593 108  89 116  90]
1679714472.873681,[ 65  86 514 644 114  95 105  88]
1679714472.880174,[ 59  81 580 738 134  94  99  72]
1679714472.904291,[ 64  92 561 701 131  99  95  77]
1679714472.926616,[ 68 109 510 680 131 111  92  77]
1679714472.955909,[ 66 106 615 693 143 106 108  83]
1679714472.970951,[ 66 102 659 639 144 110 131  86]
1679714472.986671,[ 84 106 581 571 129 113 148 108]
1679714473.000288,[ 83 101 594 563 128 113 144 109]
1679714473.022871,[ 73  76 598 556 105  90 141 104]
1679714473.053475,[ 72  81 519 540  92  86 122  94]
1679714473.064399,[ 89  86 451 561  89  88  97  98]
1679714473.082705,[ 73  80 549 584  86  87  69  74]
1679714473.105257,[ 75  91 630 664  89  77  68  74]
1679714473.120275,[ 74  97 583 714 106  74  63  75]
1679714473.142735,[ 76  96 639 709 108  91  74  78]
1679714473.165257,[ 57  93 641 782 111 104  98  83]
1679714473.181688,[ 61 104 599 776 112 103 105  85]
1679714473.202639,[ 54  91 541 690 111 105 103  80]
1679714473.225602,[ 55  83 580 605 110 106 105  80]
1679714473.249202,[ 51  83 519 591 109  92  94  73]
1679714473.263049,[ 55  91 557 575 120 118  93  65]
1679714473.285209,[ 54  87 542 556 120 121  96  66]
1679714473.300217,[ 61  95 553 652 137 121  97  70]
1679714473.322805,[ 60 106 555 663 126 120  94  68]
1679714473.345353,[ 64 105 531 690 150 129 101  70]
1679714473.367678,[ 62 103 591 637 158  95  89  75]
1679714473.383228,[ 71 100 582 636 157  91  96  77]
1679714473.405163,[ 67  92 513 540 144  92 118  83]
1679714473.42773,[ 77  94 498 522 146 105 131  87]
1679714473.442691,[ 78  88 477 487 114  95 133 100]
1679714473.467337,[ 78  90 407 467  81  79 127  92]
1679714473.495647,[ 68  87 401 436  84  77 115  88]
1679714473.504226,[ 68  95 453 415  77  73  95  80]
1679714473.525178,[ 57  86 454 448  79  53  77  75]
1679714473.54778,[ 51  91 488 586 112  64  72  60]
1679714473.562732,[ 51  85 458 614 113  72  75  60]
1679714473.585318,[ 47  83 440 604 108  90  74  54]
1679714473.60791,[ 47  86 424 651 119 101  82  58]
1679714473.622684,[ 55  83 511 764 135 103  88  63]
1679714473.661004,[ 54  91 498 724 146 105  94  61]
1679714473.672011,[ 47  88 497 683 145 105  92  60]
1679714473.682692,[ 48 103 569 789 156 102 100  63]
1679714473.706768,[ 53  99 604 823 156  96  97  61]
1679714473.735734,[ 61  98 503 748 161  99 101  71]
1679714473.744201,[ 64  90 519 761 162  92  95  70]
1679714473.766004,[ 68 102 611 790 166 105 103  80]
1679714473.787729,[ 69  89 568 739 158  98 102  86]
1679714473.804119,[ 74  93 558 706 157 100  99  89]
1679714473.826731,[ 62  90 614 644 138  94  90  77]
1679714473.847758,[ 58  96 592 594 105  91  85  75]
1679714473.862965,[ 60  88 511 587  95 101 122  64]
1679714473.885195,[ 59  83 620 566 125 110 146  60]
1679714473.924311,[ 44  73 573 520 120 108 149  55]
1679714473.92565,[ 49  76 523 542 118 108 157  65]
1679714473.945402,[ 49  78 571 576 125 112 160  65]
1679714473.967712,[ 51  72 551 573 128  99 133  68]
1679714473.990244,[ 53  76 397 538  92  82 104  70]
1679714474.021592,[ 60  77 371 565  94  85  97  74]
1679714474.044526,[ 58  81 361 537  95  93  87  65]
1679714474.066687,[ 60  79 389 493  78  92  86  67]
1679714474.068071,[ 54  78 387 497  87  79  80  63]
1679714474.087852,[ 54  77 388 542 100  85  82  62]
1679714474.104149,[ 58  89 421 513 103 120 130  77]
1679714474.125219,[ 58  93 528 525 102 118 131  80]
1679714474.14787,[ 55  98 489 486 113 119 132  78]
1679714474.162635,[ 55 103 477 460 108 117 131  79]
1679714474.185405,[ 60 111 487 395  98 112 133  83]
1679714474.216067,[ 58 108 470 391  90  79 107  79]
1679714474.222848,[ 60 100 384 424  93  75 107  88]
1679714474.245311,[ 62  94 456 520 120  71 107  93]
1679714474.267795,[ 61  96 474 551 123  73 104  91]
1679714474.290429,[ 51  88 461 602 128  76  95  82]
1679714474.312852,[ 54  77 508 638 131 101  91  78]
1679714474.336077,[ 52  95 569 664 138 100  89  64]
1679714474.350284,[ 61 100 565 594 106 102  92  74]
1679714474.365293,[ 65  94 581 578 103 108  95  80]
1679714474.3878,[ 71  95 614 573 104 118 108  94]
1679714474.410984,[ 64  95 589 529  97  88 108  96]
1679714474.425302,[ 66  78 501 472  86  94 119 102]
1679714474.447738,[ 67  61 448 621 118  91 114  93]
1679714474.470356,[ 74  74 444 637 131  95 113  90]
1679714474.485508,[ 72  71 407 590 124  83 107  75]
1679714474.509304,[ 71  99 444 668 128  82 100  65]
1679714474.546596,[ 72 112 468 680 137  75  82  61]
1679714474.548061,[ 63 113 445 674 127  73  80  60]
1679714474.575904,[ 51 108 513 665 114  87 104  67]
1679714474.590152,[ 55 108 576 732 127 109 111  80]
1679714474.630243,[ 56  87 555 656 123 108 118  80]
1679714474.630663,[ 52  69 546 646 122 111 120  79]
1679714474.650198,[ 70  81 540 533 109 145 138  94]
1679714474.665216,[ 72  82 549 645 108 137 131  95]
1679714474.68831,[ 68  94 486 643  96 124 120  85]
1679714474.710207,[ 68  96 542 693 119 126 107  84]
1679714474.725879,[ 69  96 564 789 112 130 106  84]
1679714474.747717,[ 57 102 616 843 124 114  88  68]
1679714474.778513,[ 52 107 589 868 150 107  76  55]
1679714474.785257,[ 54  99 587 846 158 101  77  54]
1679714474.807673,[ 55 103 569 806 142  97  80  55]
1679714474.84662,[ 67 106 558 753 144 105 113  87]
1679714474.853,[ 65  90 519 775 142  86 138  98]
1679714474.869117,[ 67  87 510 736 138  89 135 100]
1679714474.891783,[ 68  89 520 718 142  94 135 101]
1679714474.912863,[ 65  87 461 809 146 112 140 100]
1679714474.927679,[ 73  84 434 772 146 134 137  93]
1679714474.950358,[ 73  83 497 699 141 132 110  85]
1679714474.96515,[ 79  83 442 679 132 151 116  93]
1679714474.988022,[ 77  94 427 700 121 160 115  95]
1679714475.010174,[ 78  88 484 620 122 151 122 104]
1679714475.026687,[ 60  88 549 705 145 121 105 103]
1679714475.055893,[ 59  93 463 714 143 117 101 101]
1679714475.070196,[ 48  87 454 637 130  95 100  94]
1679714475.087297,[ 55  73 520 646 128  99 116 108]
1679714475.123405,[ 54  81 498 660 127  97 109 102]
1679714475.138898,[ 50  82 433 538  93  94 100  85]
1679714475.146971,[ 49  88 478 534  92  93  99  81]
1679714475.167706,[ 49  87 577 600  94  86  98  86]
1679714475.1902,[ 52  86 544 642  94  71  95  71]
1679714475.212812,[ 54  84 548 637  92  78 116  78]
1679714475.227717,[ 57  87 637 663 109  80 125  91]
1679714475.250198,[ 54  76 616 689  99  87 129  92]
1679714475.272914,[ 55  83 558 673  97  84 125  87]
1679714475.287628,[ 48  95 597 654 114  78 113  78]
1679714475.318389,[ 61  95 563 655 119  87  96  82]
1679714475.333127,[ 60  97 547 745 128  96 107  74]
1679714475.349165,[ 62 106 528 763 149  95 104  77]
1679714475.379879,[ 59 106 561 779 163  99 103  75]
1679714475.392824,[ 57 105 532 724 146  95 101  75]
1679714475.409296,[ 43 108 541 779 149  78  86  61]
1679714475.438131,[ 45 112 464 777 151  67  65  54]
1679714475.452582,[ 45 110 521 749 155  62  65  52]
1679714475.469121,[ 46 105 574 749 158  63  72  52]
1679714475.490271,[ 48 100 550 814 169 103 103  62]
1679714475.512841,[ 47  92 556 766 176 114 111  64]
1679714475.52793,[ 61  79 590 685 162 117 121  84]
1679714475.550182,[ 60  82 550 670 142 116 119  83]
1679714475.572736,[ 63  96 513 671 131 113 123  88]
1679714475.587795,[ 73  92 503 595 119  84 135 104]
1679714475.618641,[ 78  92 530 577  99  91 156 121]
1679714475.632877,[ 69  92 514 558  91  87 151 114]
1679714475.649146,[ 70  83 560 572 102 100 155 117]
1679714475.685934,[ 72  87 523 498  87 108 154 119]
1679714475.701296,[ 70  87 563 571  83 111 153 112]
1679714475.707737,[ 62  85 524 546  83  92 125  92]
1679714475.730271,[ 68  94 519 682 144  92 124  90]
1679714475.752773,[ 71 103 531 682 162 105 134 103]
1679714475.767704,[ 87  89 521 704 163 110 139 106]
1679714475.799847,[ 84  87 489 708 166 104 123 108]
1679714475.813071,[ 91  96 513 764 167 106 131 116]
1679714475.82769,[ 88  94 572 660 123 110 155 120]
1679714475.85031,[ 85  83 499 629  90 100 148 109]
1679714475.88108,[ 73  83 504 660  90  95 149 102]
1679714475.887589,[ 76  85 498 657 120  99 161  95]
1679714475.910281,[ 67  86 483 638 122 102 170  94]
1679714475.934336,[ 63  79 487 670 121 126 161  90]
1679714475.947779,[ 62  79 508 689 123 133 177  89]
1679714475.970261,[ 60  84 468 688 128 133 172  88]
1679714476.00098,[ 53  83 490 613 104 126 152  81]
1679714476.007695,[ 58  76 601 583  95 128 143  82]
1679714476.030175,[ 64  93 523 538  96 107 145  81]
1679714476.052626,[ 67  99 513 554  95  86 121  81]
1679714476.067719,[ 66 117 595 537  98  76 118  77]
1679714476.090208,[ 66 121 598 554 103  78 113  74]
1679714476.112998,[ 63 125 476 512 107  72 103  60]
1679714476.127776,[ 55 115 555 637 106  62  74  52]
1679714476.150158,[ 60 110 551 590 101  61  76  61]
1679714476.172777,[ 58  81 467 582  89  76 112  79]
1679714476.195845,[ 58  76 433 611  84  85 156  93]
1679714476.211674,[ 64  71 507 670  82  86 167 107]
1679714476.233098,[ 66  71 529 590  89  95 178 109]
1679714476.255229,[ 55  78 564 675 104  96 175 102]
1679714476.279117,[ 53  77 569 629 101  86 170  95]
1679714476.293306,[ 63  72 563 571  89  76 147  96]
1679714476.315206,[ 59  75 576 562  88  70 131  78]
1679714476.330371,[ 58  97 530 570 117  70 124  90]
1679714476.352677,[ 58  96 507 505 113  78 129  90]
1679714476.375202,[ 59  97 487 581 117  80 110  85]
1679714476.390309,[ 71 127 597 643 128 107 152  94]
1679714476.414176,[ 72 122 532 619 129 120 166  99]
1679714476.44313,[ 72 106 493 607  99 117 163  88]
1679714476.452055,[ 72 111 486 612  93 109 162  88]
1679714476.472674,[ 80 122 542 630 108 110 169  93]
1679714476.49518,[ 63  92 439 731 118  83 122  81]
1679714476.526002,[ 63  94 514 774 124  69 112  79]
1679714476.53261,[ 61  90 477 751 131  65 106  75]
1679714476.555275,[ 60 102 595 824 143  65  98  73]
1679714476.577693,[ 53 107 632 773 131  66  80  67]
1679714476.592676,[ 51 109 632 644 126  98  88  55]
1679714476.615694,[ 53 109 579 732 151 103 112  73]
1679714476.630203,[ 57 112 651 733 148 103 122  76]
1679714476.652684,[ 58 103 625 593 132 113 135  82]
1679714476.675802,[ 62  91 550 624 134 122 139  95]
1679714476.690232,[ 58  92 551 662 127  99 131  98]
1679714476.721399,[ 53  91 685 546  99  91 104  84]
1679714476.735285,[ 54  85 661 651 116  90  92  84]
1679714476.750654,[ 57  78 587 795 133  77  77  82]
1679714476.780878,[ 46  75 578 751 129  76  87  66]
1679714476.803798,[ 50  84 635 724 135  78  85  62]
1679714476.810322,[ 59  84 490 730 139 112 101  69]
1679714476.840651,[ 57  85 433 766 137 117 102  70]
1679714476.856752,[ 59  84 462 646 125 121 129  74]
1679714476.877682,[ 66  86 519 719 130 123 125  76]
1679714476.892657,[ 66  71 450 741 120 135 133  79]
1679714476.915543,[ 64  79 428 690 104 120 146  87]
1679714476.930408,[ 69  78 488 552  86 125 153  96]
1679714476.952752,[ 68  82 500 569 100 125 133  92]
1679714476.975243,[ 64  76 448 529  95 113 124  89]
1679714476.99775,[ 63  82 463 489  97 105 120  86]
1679714477.014137,[ 64  79 470 504 102 100  98  77]
1679714477.035335,[ 66  93 440 487  96  90  97  71]
1679714477.06598,[ 63  86 545 476  82  89  97  69]
1679714477.088424,[ 61  89 618 585 107  86  97  67]
1679714477.110887,[ 58  84 599 592 118  79  87  69]
1679714477.134105,[ 57  83 615 595 116  93  78  67]
1679714477.135592,[ 46  85 746 672 129  94  66  63]
1679714477.155752,[ 44  85 655 708 150  91  56  59]
1679714477.177867,[ 50  93 572 623 135  92  53  61]
1679714477.192809,[ 56  97 629 594 123  95  77  61]
1679714477.215263,[ 54 101 628 689 131  89  96  64]
1679714477.237748,[ 55  92 473 633 124  90  95  63]
1679714477.260232,[ 59 101 476 590  98  89  97  64]
1679714477.283812,[ 54  95 503 613 104  92 100  63]
1679714477.297794,[ 49  97 505 666 130  89  91  62]
1679714477.31267,[ 60  99 503 606 142  96  77  65]
1679714477.335567,[ 64  93 579 603 140  92  76  65]
1679714477.365917,[ 64  81 555 613 141 109  77  68]
1679714477.38081,[ 68  82 582 550 134 112  77  80]
1679714477.396613,[ 69  81 582 505 116 110  75  80]
1679714477.41816,[ 60  73 567 503 105 101  90  76]
1679714477.440215,[ 57  77 487 598 120 104  93  75]
1679714477.455196,[ 57  83 544 581 125  93 102  76]
1679714477.477858,[ 64  86 523 603 131  98 139  89]
1679714477.492705,[ 72  91 514 606 125  98 147  95]
1679714477.515193,[ 69  86 526 608 116 106 138  97]
1679714477.541166,[ 68  84 515 549  97 105 137  97]
1679714477.554383,[ 68  86 491 607  95 103 134  96]
1679714477.577284,[ 56  83 520 597 104  98  98  73]
1679714477.599086,[ 48  76 447 761 117 101  91  65]
1679714477.614286,[ 43  77 505 838 148 107  91  50]
1679714477.644857,[ 45  92 532 829 157 103  88  48]
1679714477.666122,[ 43  90 546 848 162 103  81  46]
1679714477.680908,[ 46  89 596 954 161 112  77  46]
1679714477.695195,[ 49  86 632 848 157 110  70  48]
1679714477.717803,[ 52  94 591 777 143  98  74  53]
1679714477.733231,[ 55  77 549 758 130 115 118  66]
1679714477.756646,[ 54  77 486 711 127 115 128  70]
1679714477.785949,[ 58  70 375 569 116 114 127  74]
1679714477.792649,[ 52  70 338 523 110 116 135  72]
1679714477.81516,[ 52  62 305 433  85 107 134  74]
1679714477.837779,[ 47  70 380 443  85  85  97  63]
1679714477.852634,[ 45  68 425 375  69  82  80  61]
1679714477.875167,[ 36  76 495 346  78  63  80  53]
1679714477.897787,[ 47  82 496 387  97  64  67  59]
1679714477.920268,[ 68  92 505 448  94 116 171  92]
1679714477.935202,[ 72  90 593 467 101 117 176  99]
1679714477.958204,[ 71 106 649 553 116 121 182 100]
1679714477.972708,[ 74 121 602 590 122 123 182 101]
1679714477.995224,[ 70 118 602 559 107 121 183 102]
1679714478.017879,[ 62 110 612 543 114 112 120 100]
1679714478.032648,[ 59 107 592 604 121 113 120  96]
1679714478.055223,[ 61 111 578 625 131 111 113  97]
1679714478.077742,[ 59  89 665 641 124 107 110  96]
1679714478.100637,[ 59  95 675 674 128 109 111  94]
1679714478.115491,[ 51 105 668 727 129  67  92  62]
1679714478.138114,[ 53 119 602 650 121  71  84  59]
1679714478.168142,[ 53 105 581 579  91  69  87  55]
1679714478.176727,[ 57 108 458 515  87  75  91  58]
1679714478.199162,[ 55 106 422 530  79  74  85  57]
1679714478.228432,[ 66  99 460 426  75  78  81  88]
1679714478.235139,[ 67  85 418 430  73  76 108  89]
1679714478.257685,[ 68  80 421 441  79  85 111  92]
1679714478.280389,[ 65  78 419 484  81  93 126  96]
1679714478.295159,[ 66  79 458 530  98  97 135 100]
1679714478.317717,[ 49  78 449 556  95 100 132  81]
1679714478.34072,[ 47  88 503 637 106 102 112  77]
1679714478.355273,[ 42  91 488 620 106  92 108  73]
1679714478.378256,[ 41  91 545 604 105  77  88  66]
1679714478.400235,[ 45  90 524 515  93  76  86  62]
1679714478.422733,[ 53  99 508 507 103  92  89  65]
1679714478.437732,[ 52  92 526 446  98  96  92  64]
1679714478.460186,[ 54  96 543 473 103  99  95  66]
1679714478.475198,[ 64  95 520 515 110 107 105  79]
1679714478.499258,[ 61 102 539 572 112 107  98  78]
1679714478.536733,[ 51  90 610 603 103 102  84  63]
1679714478.538131,[ 56  88 554 606  98  96  89  76]
1679714478.557735,[ 58  82 526 669  99 101  89  77]
1679714478.581169,[ 48  95 597 661  99  93  96  68]
1679714478.595415,[ 52  85 574 615  94  89  97  65]
1679714478.617742,[ 55  85 497 569  91  79  98  65]
1679714478.640163,[ 54  82 531 553  92  81  88  52]
1679714478.670664,[ 49  85 507 467  91  88  88  49]
1679714478.687313,[ 65  69 473 464  80  98  89  73]
1679714478.708124,[ 65  76 471 485  78 111 114  77]
1679714478.716649,[ 64  76 476 517  96 118 121  83]
1679714478.737737,[ 62  92 435 523  97 120 123  82]
1679714478.760255,[ 64  87 530 552  91 111 122  85]
1679714478.776678,[ 54  89 463 543 102 102 109  66]
1679714478.79915,[ 49  87 561 569 100  90  92  66]
1679714478.820409,[ 54  90 552 564  89  75  88  64]
1679714478.842731,[ 55  81 615 600 128  83 102  82]
1679714478.858003,[ 60  96 540 571 130  89 109  83]
1679714478.880402,[ 57  93 557 608 122  95 114  84]
1679714478.895188,[ 60  92 475 655 136  90 106  88]
1679714478.917862,[ 55  86 509 693 166  90 101  83]
1679714478.941767,[ 52  80 544 672 137  74  86  64]
1679714478.962897,[ 43  65 542 669 132  66  77  57]
1679714478.979217,[ 47  98 532 639 135  68  80  70]
1679714479.008471,[ 51  94 526 542 120  95 102  84]
1679714479.022807,[ 61  96 472 479  81  94 107  95]
1679714479.03781,[ 64  93 424 455  81  98 115 100]
1679714479.06038,[ 68  91 444 450  92 113 135 108]
1679714479.082839,[ 65  61 436 414  87 110 136  98]
1679714479.099263,[ 58  74 461 472 100  94 122  85]
1679714479.120179,[ 49  85 526 448  89  89 115  72]
1679714479.142834,[ 45  84 446 419  84  84 104  65]
1679714479.157991,[ 43  94 545 477  88  65  78  57]
1679714479.180541,[ 45  94 545 490  96  90  79  66]
1679714479.202734,[ 46  88 568 456  92  96  91  70]
1679714479.219745,[ 44  74 519 483  91 105 100  74]
1679714479.241696,[ 47 100 656 536 111 110 100  74]
1679714479.262922,[ 43 112 609 510 105 106  95  70]
1679714479.285246,[ 40 111 612 586 130  95  91  59]
1679714479.300664,[ 53 111 558 619 133  92  79  59]
1679714479.322665,[ 51 118 570 610 137  90  73  56]
1679714479.353638,[ 49 110 476 554 128  91  81  58]
1679714479.360497,[ 54  97 450 603 135  95  83  60]
1679714479.382686,[ 57  94 447 601 107  87  80  60]
1679714479.405318,[ 53  92 441 563 101  87 109  74]
1679714479.421662,[ 59  97 487 592 114  89 114  76]
1679714479.444139,[ 61  85 491 709 124  84 113  77]
1679714479.481589,[ 61  86 552 655 118  84 118  83]
1679714479.483064,[ 62  86 555 603 125  99 116  89]
1679714479.518392,[ 58  91 609 628 125  96  85  74]
1679714479.525932,[ 57  85 609 709 145  96  95  78]
1679714479.541615,[ 54  85 628 619 140  95  90  74]
1679714479.562904,[ 55  85 574 636 136  99  86  66]
1679714479.58536,[ 47  92 566 618 129  82  93  60]
1679714479.609169,[ 50  88 526 677 134  80  93  59]
1679714479.622766,[ 48  83 470 589  98  79  88  54]
1679714479.645117,[ 62  95 491 581  91  97 109  68]
1679714479.661726,[ 64  93 478 540  95 117 111  76]
1679714479.682868,[ 73  88 483 607 126 123 111  83]
1679714479.705222,[ 71  89 560 698 153 122 111  86]
1679714479.722015,[ 72  89 564 710 163 116  97  83]
1679714479.750835,[ 64  78 484 732 168 112  89  78]
1679714479.767712,[ 80  81 483 775 185 124 123  97]
1679714479.797331,[ 76  83 524 731 164 119 128  95]
1679714479.802596,[ 76  82 455 552 133 128 144  95]
1679714479.848276,[ 77  95 535 683 140 129 149  99]
1679714479.864102,[ 78  94 524 665 143 132 153  98]
1679714479.865635,[ 56  83 535 655 116 103 142  81]
1679714479.88517,[ 63  86 508 668 125 101 147  93]
1679714479.901639,[ 60 100 530 769 150  90 131  87]
1679714479.930264,[ 63  95 510 675 146  90 130  88]
1679714479.945556,[ 60  95 519 767 155  99 118  88]
1679714479.961641,[ 60  96 534 766 157 102 106  83]
1679714479.982717,[ 66  91 509 736 154 107  92  88]
1679714480.005254,[ 66  72 468 687 130 135 101  91]
1679714480.029132,[ 63  64 414 658 112 138 103  91]
1679714480.04416,[ 60  68 486 625 123 129 107  91]
1679714480.072818,[ 70  65 474 586 122 120 100  94]
1679714480.104024,[ 63  62 478 614 121 120 115 108]
1679714480.118205,[ 64  64 495 630 129  87 110 107]
1679714480.133149,[ 62  79 534 729 153  87 105 103]
1679714480.147851,[ 63  85 484 669 127  72  96 101]
1679714480.165168,[ 54  81 454 713 123  71  94  95]
1679714480.186832,[ 49  91 453 727 137  63  72  49]
1679714480.201785,[ 50  96 493 690 136 102  89  49]
1679714480.222979,[ 50  84 481 587 109  99  89  52]
1679714480.245189,[ 54  75 482 612 117 105  91  53]
1679714480.262315,[ 52  76 513 566 124 103  87  53]
1679714480.28411,[ 55  79 554 545 115 102  91  64]
1679714480.306813,[ 54  74 537 587 122  67  94  74]
1679714480.327892,[ 56  76 509 568 123  68 101  77]
1679714480.374866,[ 53  72 586 522 109  61 102  80]
1679714480.375766,[ 59  93 619 609 112  68 106  87]
1679714480.395249,[ 52  86 628 667 114  69  97  77]
1679714480.411654,[ 50  87 661 629 100  61  69  66]
1679714480.425422,[ 49  91 683 668  96  55  56  57]
1679714480.441595,[ 52 101 634 712 102  73  78  57]
1679714480.464147,[ 44  96 569 692 111  76  76  51]
1679714480.4869,[ 48  96 542 628 117  78  79  57]
1679714480.501794,[ 49  96 460 691 119  76  79  56]
1679714480.530267,[ 49  95 406 667 122  78  82  58]
1679714480.545379,[ 49  92 424 613 123  77  86  69]
1679714480.569857,[ 52  84 471 563 112  76 104  72]
1679714480.584305,[ 53  80 500 620 101  74 102  70]
1679714480.605134,[ 53  77 508 527  98  99 114  78]
1679714480.63518,[ 55  74 522 534 110 117 132  78]
1679714480.665887,[ 58  66 481 534 106 115 138  87]
1679714480.674245,[ 55  58 510 594 100 117 131  91]
1679714480.689202,[ 52  53 458 566  98 122 140  91]
1679714480.718639,[ 52  60 481 607 120 108 134  87]
1679714480.725155,[ 53  53 464 613 127  87 115  87]
1679714480.747948,[ 46  68 566 637 134  75  88  64]
1679714480.764158,[ 53  74 526 574 131  83  86  74]
1679714480.785383,[ 54  87 555 594 142  73  80  83]
1679714480.808031,[ 52  87 542 586 133  71  74  81]
1679714480.824153,[ 50  90 553 599 126  99 103  84]
1679714480.845678,[ 71  82 539 632 123 108 117 106]
1679714480.88411,[ 68  81 507 655 134 101 115  96]
1679714480.885633,[ 69  76 481 607 127 102 112  87]
1679714480.905717,[ 70  76 524 568 122 102 117  88]
1679714480.928035,[ 69  73 534 535 114  82  99  85]
1679714480.951635,[ 47  66 521 491 108  74  91  56]
1679714480.966761,[ 49  63 532 525 110  79  86  48]
1679714480.997054,[ 48  77 548 526 105  82  91  54]
1679714481.004262,[ 45  73 481 502  90  82  90  54]
1679714481.025454,[ 45  78 453 495  87  77  84  53]
1679714481.047677,[ 47  80 421 577  96  73  78  54]
1679714481.064344,[ 39  86 489 549  81  68  75  52]
1679714481.089153,[ 50  81 467 573  75  72  75  52]
1679714481.108384,[ 52  82 491 611  88  70  96  63]
1679714481.124725,[ 53  76 569 600  87  71 111  70]
1679714481.145546,[ 55  78 536 634  83  86 121  72]
1679714481.168053,[ 55  84 531 704 101  92 120  73]
1679714481.184299,[ 47  79 629 677 109  86 117  72]
1679714481.213084,[ 48  87 642 697 108  83  99  61]
1679714481.229572,[ 67  91 580 688 106  95 111  89]
1679714481.244507,[ 67  87 542 551 100  85 109  91]
1679714481.274326,[ 68  86 610 568 115  74 118  93]
1679714481.295427,[ 65  82 565 567 108  74 117  90]
1679714481.304167,[ 68  72 544 538 103  83 123  92]
1679714481.332913,[ 51  73 556 607 114  77 104  62]
1679714481.347777,[ 54  91 612 611 115  87 101  69]
1679714481.364134,[ 55  82 555 469  88  92  90  69]
1679714481.385693,[ 61  81 535 449  87  96 107  71]
1679714481.407886,[ 66  82 528 440  87  96 139  87]
1679714481.424959,[ 64  82 513 373  79  99 134  83]
1679714481.445312,[ 65  69 583 464  85  98 133  78]
1679714481.467732,[ 63  70 594 471  86  97 145  78]
1679714481.484411,[ 60  70 580 506  97  95 144  80]
1679714481.505438,[ 62  70 592 541  99  92 109  78]
1679714481.529383,[ 63  73 624 525  98 100 125  80]
1679714481.551857,[ 63  81 564 468 104  97 134  85]
1679714481.565479,[ 65  82 500 594 115  93 126  86]
1679714481.589214,[ 67  87 562 661 117  92 115  87]
1679714481.610691,[ 56  87 563 625 111  87 112  71]
1679714481.625599,[ 57  83 531 652 111  65  92  69]
1679714481.64786,[ 53  75 572 683 103  59  71  61]
1679714481.664194,[ 50  73 588 597  90  60  59  54]
1679714481.685169,[ 50  64 499 523  75  64  91  64]
1679714481.708888,[ 55  74 555 535  78  70 102  68]
1679714481.724606,[ 55  83 553 579 106  82 107  73]
1679714481.745345,[ 51  80 444 618 119  83 111  71]
1679714481.767937,[ 51  82 416 633 123  82 115  73]
1679714481.798498,[ 46  84 434 634 129  80  86  61]
1679714481.806327,[ 38  87 448 723 139  76  72  56]
1679714481.829327,[ 39  83 460 746 132  65  68  60]
1679714481.844207,[ 54  84 466 672 123  93  72  67]
1679714481.865798,[ 54  88 443 626 120 100  79  71]
1679714481.887754,[ 57  88 454 638 123  98  79  70]
1679714481.910395,[ 56  83 378 549 115  98  76  66]
1679714481.926953,[ 53  79 465 430 105  97  70  59]
1679714481.947714,[ 46  77 463 534 102  74  64  52]
1679714481.97039,[ 51  80 483 581 121 102  54  47]
1679714481.985373,[ 50  86 570 723 141 111  59  48]
1679714482.008426,[ 51  84 572 817 154 113  72  49]
1679714482.030623,[ 55 104 518 836 166 116  73  50]
1679714482.0532,[ 49 109 574 781 171 113  68  45]
1679714482.083682,[ 45 101 593 770 162  80  66  44]
1679714482.090278,[ 55 101 511 698 161 108  76  65]
1679714482.106638,[ 60  99 495 589 154 107  78  69]
1679714482.129186,[ 61  79 454 583 141 113 119  84]
1679714482.150398,[ 65  73 361 570 132 113 134  97]
1679714482.166655,[ 71  77 306 579 122 117 134 101]
1679714482.18767,[ 64  91 400 528  98  79 128  88]
